energy [eV],cross section [b]
1e-05,238.030604
1.0647597e-05,230.678433
1.16189925e-05,220.82516
1.22665895e-05,214.917049
1.29980629e-05,208.782198
1.42210875e-05,199.602681
1.50364372e-05,194.115537
1.5851787e-05,189.057387
1.73916224e-05,180.493974
1.89314579e-05,172.997855
2.06042524e-05,165.826643
2.25429649e-05,158.53575
2.44816775e-05,152.129042
2.59415532e-05,147.786486
2.75688294e-05,143.35853
3.00097437e-05,137.404686
3.26614219e-05,131.708902
3.47102259e-05,127.762659
3.67590298e-05,124.151116
3.88078337e-05,120.829489
4.11219975e-05,117.380384
4.37015211e-05,113.863449
4.75708065e-05,109.134568
5.17741903e-05,104.610652
5.66457708e-05,100.011236
6.15173513e-05,95.969603
6.72302173e-05,91.8015942
7.13192232e-05,89.1310773
7.74527321e-05,85.5291297
8.46454521e-05,81.8145544
8.97936692e-05,79.4345604
9.49418863e-05,77.2508735
0.000100090103,75.2379111
0.000106571908,72.9139945
0.000113053713,70.7929175
0.000119535518,68.8467916
0.000126017324,67.0528171
0.00013825859,64.0156303
0.000150499856,61.3569803
0.000163798109,58.8135647
0.000179210338,56.2277014
0.000194622567,53.9554322
0.000206228175,52.415256
0.000219164571,50.8447907
0.000238569165,48.7331378
0.000259649274,46.7130106
0.000275936698,45.313394
0.000292224123,44.0324856
0.000308511548,42.8544012
0.00032690851,41.6311041
0.000347415009,40.3837495
0.000378174759,38.7065522
0.000398681258,37.69795
0.000424499737,36.5335427
0.000463227455,34.9730204
0.000501955173,33.5967761
0.000550714872,32.0749804
0.000583221338,31.168286
0.000631981038,29.9417602
0.00067290794,29.0169191
0.000734298293,27.7774597
0.000775225196,27.0342683
0.000821452926,26.2625543
0.000872981484,25.4756634
0.000924510042,24.7555122
0.000976038599,24.0931703
0.00103424111,23.4054086
0.00113155579,22.3763168
0.00119643224,21.7611666
0.00126130869,21.1941095
0.00138383165,20.2340845
0.00150635461,19.3937102
0.00163945697,18.5897592
0.00174229774,18.0327524
0.00184513851,17.5229874
0.00199939967,16.8334051
0.00212888019,16.3134364
0.00232310098,15.6165806
0.0024525815,15.1987387
0.00259883226,14.7648602
0.00276185326,14.3224483
0.00292487427,13.9175586
0.00308789527,13.5451705
0.00327203065,13.1584901
0.0035799053,12.5799022
0.00388777995,12.0714793
0.00424882225,11.5471565
0.00463644838,11.0538731
0.00502407451,10.6188383
0.00534943207,10.2908063
0.0058374684,9.85118034
0.00632550474,9.46346646
0.00673514252,9.17111582
0.00714478031,8.9042812
0.0075544181,8.65945443
0.00796405589,8.43376748
0.00847980576,8.17321582
0.00899555562,7.93540448
0.00951130549,7.71720693
0.0103517299,7.39722953
0.0113257536,7.07190825
0.0122997772,6.78603601
0.0134420074,6.49122102
0.014668341,6.21385591
0.0158946746,5.96924044
0.0169240089,5.7847897
0.0179533433,5.61643628
0.0194973448,5.38936039
0.0206599979,5.23544249
0.0219559698,5.07849523
0.0232519417,4.93485708
0.0245479136,4.80274724
0.0269056538,4.5873535
0.0285113075,4.45621908
0.0301169613,4.33571418
0.0327497886,4.15764504
0.0358313091,3.97469016
0.0389128297,3.81391641
0.0425265058,3.64810848
0.0451130084,3.54186821
0.0489927624,3.39856733
0.0535425208,3.25077777
0.056799028,3.15608168
0.0616837887,3.02835068
0.0653620767,2.94176809
0.0694621455,2.85347845
0.0735622144,2.7726729
0.0776622832,2.69835013
0.0822933906,2.62117074
0.0900366092,2.50567906
0.0977798278,2.40418343
0.106860243,2.29950312
0.116609255,2.20100857
0.126358268,2.11413437
0.134541191,2.04862096
0.146815577,1.96080964
0.159089962,1.88335584
0.16939258,1.82494484
0.179695198,1.77162528
0.195149126,1.69969729
0.206786133,1.65093519
0.219757529,1.60120653
0.232728925,1.55568826
0.245700321,1.51381719
0.26851751,1.4476525
0.293014746,1.38538677
0.317511982,1.33045724
0.348354953,1.26969778
0.379197924,1.21649087
0.41270407,1.1655701
0.438592402,1.13027752
0.464480733,1.09796812
0.50331323,1.05424474
0.535907644,1.0212616
0.584799265,0.977036571
0.617393678,0.950505807
0.654209701,0.922945459
0.715766148,0.881683319
0.75680378,0.857003416
0.797841411,0.834242059
0.875343367,0.795680835
0.952845322,0.761895278
1.03703928,0.729544076
1.13461725,0.696618982
1.23219522,0.667654938
1.30567269,0.648003853
1.38757566,0.627949118
1.51043011,0.60095344
1.59233307,0.584701143
1.69545208,0.565919732
1.7985711,0.548758902
1.90169011,0.532996536
2.00480912,0.518450995
2.13463996,0.501638603
2.32938621,0.479070383
2.52413247,0.459128982
2.76932556,0.437032168
3.01451865,0.41764497
3.28088325,0.399055074
3.48668833,0.386148402
3.79539594,0.368756225
4.13075931,0.352073816
4.38987588,0.340488312
4.64899246,0.329864488
4.90810904,0.320074849
5.20078624,0.309889649
5.52702406,0.299482313
5.85326188,0.289937476
6.17949971,0.281141122
6.74696396,0.267353946
7.35348198,0.254379389
7.98560293,0.242427083
8.50274818,0.233635222
9.27846605,0.221824054
10.0541839,0.211381852
10.834542,0.202011482
11.6149,0.193589349
12.1367538,0.188411565
12.6586077,0.183555013
13.4783753,0.176501248
14.2981429,0.170063616
15.1179105,0.16416036
15.9376782,0.158724472
16.7332586,0.153843218
17.5288391,0.149307254
18.3244195,0.145080475
19.12,0.141132026
20.0661552,0.136762112
21.6164388,0.130274424
22.915917,0.125395444
24.8727094,0.118864432
26.824951,0.113178563
28.385834,0.109141462
29.946717,0.105499806
31.8084418,0.101615007
33.8342209,0.0978913123
35.86,0.0946349671
37.255,0.0926397159
39.2638,0.0900928268
41.0935467,0.088086356
43.1845156,0.0861371468
45.004225,0.0847258293
46.552675,0.0837276101
48.56845,0.0827031021
49.81,0.0822265031
51.5110321,0.0817664327
53.28355,0.0815292666
55.020325,0.0815452904
57.126775,0.0819127316
58.605475,0.082413674
59.8819,0.083018978
61.6826176,0.0841669962
62.5829765,0.0848800042
64.4575,0.086691231
65.7409,0.088210387
67.4986,0.0907061213
68.6704,0.092667951
69.8422,0.0948972569
70.9861,0.097359778
72.13,0.100137531
73.6366,0.10434136
74.7526,0.107910658
76.036,0.1125674
77.1799,0.117287828
78.2959,0.122489187
79.3769911,0.128173064
79.9279822,0.131344841
81.058,0.138507297
82.174,0.146570415
82.732,0.151023803
83.569,0.158301627
84.127,0.16359437
84.964,0.172278335
85.522,0.178620463
86.359,0.189074758
86.917,0.196747658
87.475,0.205053239
88.033,0.214060824
88.87,0.229064772
89.428,0.240199681
89.707,0.246147418
90.265,0.258881635
90.544,0.265703072
91.102,0.280352664
91.72975,0.298627182
92.14825,0.312005123
92.56675,0.326457598
92.98525,0.342101935
93.40375,0.359071997
93.82225,0.37752106
94.24075,0.397625294
94.729,0.423445157
95.008,0.439478803
95.287,0.45654249
95.7055,0.484268924
95.9845,0.504323843
96.2635,0.525770951
96.682,0.560844666
96.961,0.586384698
97.24,0.613853781
97.519,0.643451269
97.798,0.675403011
98.077,0.709965689
98.356,0.747432021
98.635,0.788137005
98.914,0.832465477
99.193,0.880861288
99.472,0.933838507
99.6115,0.962228322
99.8905,1.02322984
100.03,1.0560305
100.309,1.12676575
100.588,1.20517116
100.749715,1.25457326
100.93675,1.31574082
101.146,1.38982837
101.35525,1.4705794
101.5645,1.55881924
101.77375,1.65550522
101.91325,1.72519826
102.05275,1.79951305
102.262,1.92057988
102.4015,2.00838866
102.541,2.10251226
102.6805,2.20357213
102.82,2.31226814
102.9595,2.4293908
103.099,2.55583569
103.16875,2.62286675
103.30825,2.76524726
103.378,2.84090661
103.5175,3.00202192
103.58725,3.08785885
103.72675,3.27115122
103.86625,3.47154051
104.00575,3.69122416
104.0755,3.80908591
104.215,4.06264956
104.3545,4.34276703
104.494,4.65328427
104.6335,4.9987698
104.70325,5.18629162
104.773,5.38468389
104.84275,5.59480408
104.9125,5.81759591
104.98225,6.05409999
105.086875,6.43711465
105.156625,6.7132026
105.226375,7.00760093
105.296125,7.32196628
105.365875,7.65814693
105.435625,8.01821
105.505375,8.40447335
105.575125,8.8195429
105.644875,9.26635667
105.714625,9.74823686
105.784375,10.2689517
105.854125,10.8327893
105.889,11.1323826
105.95875,11.7703034
106.0285,12.4649668
106.09825,13.2233058
106.168,14.0533442
106.202875,14.498108
106.272625,15.4536624
106.342375,16.5072701
106.394688,17.3700812
106.447,18.3025697
106.48885,19.1038683
106.534188,20.0329627
106.576037,20.9522354
106.621375,22.0215432
106.663225,23.0830984
106.71205,24.4217025
106.760875,25.8803898
106.8097,27.4739361
106.858525,29.219456
106.910838,31.2809859
106.96315,33.5686795
107.015463,36.1167712
107.039875,37.4062236
107.067775,38.9662026
107.095675,40.6257384
107.123575,42.3934553
107.151475,44.2789285
107.179375,46.2928116
107.207275,48.4469853
107.235175,50.7547298
107.263075,53.2309268
107.290975,55.8922953
107.318875,58.7576689
107.35375,62.6589435
107.38165,66.0654713
107.416525,70.7269836
107.4514,75.8970946
107.486275,81.6519798
107.500225,84.137455
107.52115,88.0824968
107.5351,90.8675982
107.556025,95.2976808
107.569975,98.4320782
107.5909,103.429238
107.611825,108.813279
107.63275,114.624731
107.6467,118.758909
107.667625,125.387783
107.68855,132.580886
107.709475,140.403186
107.7304,148.929124
107.751325,158.244288
107.77225,168.447438
107.793175,179.652961
107.8141,191.993865
107.835025,205.625434
107.85595,220.72974
107.8699,231.721821
107.88385,243.535836
107.904775,262.979417
107.918725,277.228119
107.932675,292.632016
107.946625,309.314989
107.960575,327.417264
107.974525,347.097921
107.991962,374.196248
108.005912,398.128422
108.019863,424.325307
108.033813,453.065579
108.040787,468.487605
108.05125,493.058978
108.058225,510.469226
108.068688,538.260465
108.075663,557.989204
108.086125,589.54153
108.0931,611.982833
108.103563,647.942245
108.110537,673.566482
108.121,714.703723
108.127975,744.071591
108.138438,791.303962
108.1489,842.702939
108.159363,898.69877
108.169825,959.76317
108.180287,1026.40982
108.19075,1099.19295
108.201212,1178.7029
108.211675,1265.55736
108.21865,1327.85189
108.225625,1393.87602
108.2326,1463.80848
108.239575,1537.81601
108.24655,1616.04624
108.253525,1698.61882
108.26608,1858.41751
108.27445,1972.92412
108.28282,2093.60254
108.2884,2177.28733
108.29956,2351.52366
108.33862,2990.79873
108.34978,3160.04938
108.35815,3274.69537
108.36373,3343.29335
108.36931,3404.40717
108.37489,3457.05114
108.38047,3500.33106
108.38605,3533.47977
108.39163,3555.88972
108.4,3568.50485
108.40837,3555.51908
108.41395,3532.86696
108.41953,3499.48326
108.42511,3455.97805
108.43069,3403.12063
108.43627,3341.80698
108.44185,3273.02412
108.45022,3158.13072
108.46138,2988.60765
108.49486,2438.85394
108.5116,2174.56735
108.52276,2009.75176
108.52834,1931.33209
108.5395,1782.91513
108.546475,1695.94219
108.55345,1613.39712
108.563913,1497.69198
108.574375,1391.32873
108.584837,1293.76022
108.5953,1204.37741
108.605762,1122.54975
108.616225,1047.65249
108.6232,1001.27291
108.633663,936.606432
108.640637,896.530038
108.647613,858.70483
108.654587,822.98891
108.66505,773.07992
108.672025,742.070431
108.679,712.737625
108.685975,684.97512
108.69295,658.683558
108.699925,633.770224
108.713875,587.738272
108.727825,546.255824
108.741775,508.781733
108.755725,474.846345
108.769675,444.041815
108.783625,416.013591
108.797575,390.452995
108.811525,367.090821
108.8185,356.159438
108.83245,335.663139
108.839425,326.050057
108.853375,307.984743
108.86035,299.492817
108.8743,283.500142
108.881275,275.966515
108.895225,261.749717
108.9022,255.039176
108.923125,236.350967
108.94405,219.600655
108.964975,204.534836
108.978925,195.31962
108.99985,182.601531
109.0138,174.78875
109.034725,163.962322
109.048675,157.28537
109.0696,147.998458
109.08355,142.250293
109.104475,134.227936
109.118425,129.246025
109.13935,122.271269
109.1533,117.926725
109.1812,109.897059
109.2091,102.652115
109.237,96.093819
109.2649,90.1388187
109.2928,84.7159293
109.3207,79.7640814
109.3486,75.2306573
109.3765,71.0701351
109.4044,67.2429787
109.41835,65.4434659
109.44625,62.0531113
109.47415,58.917851
109.516,54.6397765
109.55785,50.8086666
109.5997,47.3646473
109.64155,44.2575021
109.6834,41.444869
109.72525,38.8908162
109.7671,36.5647098
109.80895,34.4403066
109.8508,32.4950221
109.89265,30.709337
109.92055,29.5990881
109.9624,28.0428527
109.9903,27.0722989
110.0461,25.2759104
110.074,24.443787
110.1298,22.8978126
110.1577,22.1790585
110.19955,21.1625421
110.25535,19.9120464
110.3251,18.4983814
110.387875,17.350559
110.457625,16.1958079
110.527375,15.1522845
110.56225,14.6678313
110.632,13.7659164
110.666875,13.34575
110.736625,12.5609804
110.7715,12.1942306
110.84125,11.5071994
110.876125,11.185197
110.945875,10.5803506
110.98075,10.2961139
111.0505,9.7608702
111.085375,9.50872646
111.19,8.80812089
111.294625,8.18201751
111.39925,7.62023201
111.469,7.2771823
111.573625,6.80437868
111.643375,6.51426984
111.748,6.11263072
111.81775,5.86512123
111.922375,5.52107125
111.992125,5.30822433
112.061875,5.10743202
112.131625,4.91780244
112.23625,4.65253416
112.306,4.48741936
112.4455,4.1824728
112.585,3.9075507
112.7245,3.65884332
112.864,3.43312605
113.0035,3.22765486
113.143,3.04008286
113.2825,2.86839337
113.422,2.71084565
113.49175,2.63689542
113.63125,2.49779374
113.77075,2.36941944
113.98,2.19466018
114.1195,2.08868943
114.259,1.99022177
114.46825,1.85509936
114.6775,1.73330893
114.88675,1.62315588
115.096,1.52320628
115.30525,1.43224025
115.5145,1.34921474
115.72375,1.27323362
115.933,1.20352361
116.0725,1.16019953
116.3515,1.0803234
116.491,1.04346287
116.77,0.975220929
117.049,0.913508684
117.1885,0.884844532
117.4675,0.831455114
117.607,0.806571869
117.81625,0.771311598
118.165,0.717531369
118.444,0.678502446
118.723,0.64261354
119.002,0.609537412
119.1415,0.593963397
119.4205,0.564581905
119.6995,0.537363435
119.9785,0.51210126
120.2575,0.488612737
120.5365,0.466736018
120.8155,0.446327276
121.0945,0.427258351
121.3735,0.409414749
121.6525,0.392693927
122.071,0.3695191
122.55925,0.34505383
122.97775,0.326023835
123.39625,0.308575852
123.6055,0.300390986
124.024,0.285003824
124.4425,0.270813616
124.861,0.25769956
125.2795,0.24555569
125.698,0.234288747
126.199067,0.221837653
126.449601,0.216000078
126.814,0.207933901
127.372,0.19647743
127.93,0.185995388
128.209,0.181085622
128.767,0.171868415
129.046,0.167539326
129.883,0.155554857
130.72,0.144900925
131.557,0.135387446
132.115,0.12959986
132.952,0.121650579
133.51,0.116788824
134.347,0.110078091
134.905,0.105954294
135.742,0.100236868
136.3,0.0967084289
136.858,0.0933858759
137.416,0.0902534101
137.974,0.0872967177
139.0342,0.0821176742
140.206,0.0769847455
141.322,0.0725959998
142.0474,0.069973781
142.7728,0.067515151
144.112,0.0633615189
145.24195,0.0602012285
146.38585,0.0572826224
147.5437,0.0545827256
148.7155,0.0520811425
149.8873,0.0497859008
151.0591,0.0476745477
151.99375,0.0461092177
153.04,0.0444702942
154.009525,0.0430492705
155.948575,0.0404583618
157.343575,0.0387775804
158.62,0.0373577655
160.348514,0.0355949849
162.8329,0.033341191
164.8975,0.0316830184
166.99,0.0301720802
169.4731,0.0285694622
171.02155,0.0276614137
173.6581,0.0262554336
175.8343,0.0252118319
177.5362,0.024460426
179.545,0.0236388909
182.0281,0.0227107125
184.2043,0.0219677805
186.4642,0.0212582
188.8078,0.0205819221
191.1514,0.019959949
193.495,0.0193867112
197.68,0.0184695101
200.842355,0.0178554235
203.013727,0.0174683725
205.1851,0.0171068878
208.84,0.0165507563
212.9134,0.0159998209
218.4934,0.0153468467
222.79,0.014913434
227.90965,0.0144652905
233.48965,0.0140511222
236.74,0.013841818
242.32,0.0135319866
247.9,0.0132792862
252.868317,0.0130982863
258.601238,0.0129372538
264.334159,0.0128245205
270.067079,0.0127579635
275.8,0.0127363465
281.755,0.0127610438
286.8992,0.0128213859
293.0588,0.012942485
296.1792,0.0130248736
299.2996,0.013121983
304.9256,0.0133360604
310.166156,0.0135836491
315.636067,0.0138962566
320.696311,0.0142398716
324.8312,0.0145636999
330.26,0.0150547573
334.9,0.0155413894
338.7512,0.0159984985
342.3704,0.0164776037
346.7552,0.0171308474
351.3952,0.0179220714
355.78,0.0187803944
359.2368,0.0195455477
362.1252,0.0202537253
363.8768,0.0207172696
365.6284,0.0212089796
368.0876,0.0219511972
371.8228,0.0232093405
375.0476,0.0244428057
376.66,0.0251183448
378.98,0.0261680153
380.9288,0.0271283118
382.8776,0.0281689112
384.8264,0.0292991168
386.7752,0.0305296567
388.6776,0.0318395547
390.58,0.0332703147
393.0856,0.0353658556
394.9416,0.0370958667
397.076,0.0393024803
398.9784,0.0414946399
399.9528,0.0427104926
401.278735,0.044477633
402.644,0.0464466152
403.572,0.0478803357
405.428,0.0510075763
406.356,0.0527155586
407.748,0.0554813619
408.676,0.0574750888
410.068,0.0607178574
410.996,0.0630661467
412.388,0.066904449
413.316,0.0696983111
414.708,0.0742902475
415.636,0.077652075
417.028,0.0832122399
417.956,0.0873097641
418.42,0.0894892267
419.348,0.0941353514
420.276,0.0992034183
421.204,0.104746719
422.132,0.110827256
422.828,0.115783373
423.524,0.121117343
424.568,0.129915233
425.264,0.136379883
425.612,0.139811971
426.308,0.147113674
426.656,0.151000137
427.352,0.159291126
428.164,0.169933135
428.628,0.17653881
429.092,0.1835669
429.556,0.191054426
430.252,0.203238501
430.716,0.212065268
431.18,0.221517737
431.644,0.231656782
432.34,0.248304816
432.804,0.260479395
433.5,0.280588103
433.964,0.295384671
434.196,0.303246967
434.66,0.319988818
434.892,0.32890798
435.356,0.347952996
435.588,0.358127992
436.052,0.379920372
436.284,0.391599327
436.748,0.416695837
437.212,0.44437593
437.676,0.475007781
438.14,0.509027601
438.488,0.537074901
438.72,0.557118306
438.952,0.578336223
439.184,0.600822425
439.416,0.624680236
439.648,0.650023723
439.88,0.67697907
440.112,0.705686149
440.344,0.736300349
440.576,0.768994679
440.808,0.803962233
441.04,0.841419042
441.272,0.881607435
441.62,0.947617349
441.852,0.995904882
442.084,1.04804279
442.316,1.10445203
442.548,1.16561272
442.78,1.23207438
443.012,1.30446833
443.244,1.38352276
443.476,1.47008114
443.708,1.56512478
443.94,1.66980082
444.172,1.78545699
444.404,1.91368522
444.636,2.05637669
444.752,2.13383585
444.926,2.25856603
445.042,2.34794434
445.158,2.44277558
445.274,2.54351256
445.39,2.65065608
445.506,2.76476115
445.68,2.95033888
445.796,3.08469977
445.941,3.26603777
446.086,3.46393965
446.2165,3.65792584
446.347,3.86875652
446.492,4.12522029
446.637,4.40816943
446.782,4.72137823
446.930625,5.07850489
447.00675,5.27737734
447.082875,5.48819876
447.159,5.71194504
447.2315,5.93803769
447.31125,6.20263669
447.391,6.48536317
447.47075,6.78790962
447.5505,7.11217047
447.623,7.4275801
447.71,7.83460527
447.7796,8.18483712
447.8666,8.65669683
447.9536,9.17060057
448.0464,9.77090956
448.1392,10.4321651
448.232,11.1628859
448.3248,11.9731282
448.4176,12.8748308
448.464,13.3643307
448.5104,13.8822526
448.5568,14.4308335
448.6148,15.1634453
448.6612,15.7903898
448.7076,16.4569551
448.754,17.1665386
448.812,18.1197916
448.8584,18.9405874
448.9164,20.0471937
448.9744,21.2533464
449.0324,22.5712902
449.0904,24.0152005
449.1484,25.6015589
449.2064,27.3496151
449.2644,29.2819595
449.3224,31.4252389
449.3572,32.8253632
449.392,34.3205166
449.4152,35.3743471
449.45,37.0477642
449.4848,38.8417995
449.5196,40.7682146
449.5544,42.8402244
449.5892,45.072716
449.624,47.4825054
449.6588,50.0886415
449.6936,52.9127662
449.7284,55.9795435
449.7632,59.317171
449.7864,61.7085098
449.8096,64.2452588
449.8444,68.3492369
449.8676,71.3039578
449.8908,74.4511073
449.9256,79.5697545
449.9488,83.2752766
449.972,87.2403221
449.9952,91.4891195
450.0184,96.0487133
450.0416,100.949353
450.0648,106.224945
450.088,111.913573
450.1112,118.058107
450.1344,124.706913
450.146,128.237235
450.1692,135.747217
450.1924,143.91219
450.204,148.263367
450.2272,157.554797
450.2504,167.709052
450.262,173.141824
450.2794,181.77581
450.291,187.877952
450.3084,197.593248
450.32,204.4721
450.3374,215.444384
450.349,223.227735
450.3664,235.666355
450.3838,249.101785
450.4012,263.633881
450.4186,279.373668
450.436,296.444514
450.4534,314.983332
450.4708,335.141781
450.4882,357.087379
450.5056,381.004434
450.523,407.094615
450.5346,425.802822
450.5462,445.642877
450.5636,477.683427
450.5752,500.673641
450.5868,525.057602
450.6042,564.416701
450.6158,592.622833
450.6274,622.487031
450.639,654.075012
450.6564,704.808072
450.67264,755.881722
450.68656,802.537623
450.70512,868.768071
450.72368,939.23329
450.74224,1013.19469
450.79328,1222.82587
450.81184,1294.58765
