energy [eV],cross section [b]
1e-05,1155.5177
1.06211724e-05,1121.21893
1.15529309e-05,1075.05486
1.21741033e-05,1047.26906
1.28724467e-05,1018.46536
1.40357183e-05,975.347955
1.48112327e-05,949.470233
1.55867471e-05,925.548687
1.70390556e-05,885.226406
1.80072613e-05,861.099543
1.89754669e-05,838.843661
2.06683444e-05,803.756581
2.24815065e-05,770.663544
2.42946685e-05,741.348076
2.58037862e-05,719.343042
2.73129039e-05,699.187954
2.95765804e-05,671.899104
3.22152258e-05,643.79507
3.40993124e-05,625.756781
3.59833989e-05,609.154451
3.78674855e-05,593.807144
4.13958208e-05,567.937653
4.37480444e-05,552.458631
4.61002679e-05,538.179973
4.87447187e-05,523.378246
5.16813968e-05,508.291148
5.60864139e-05,487.922848
6.08562677e-05,468.411648
6.63557947e-05,448.58146
7.18553218e-05,431.073854
7.59771604e-05,419.218004
8.05544862e-05,407.133582
8.7420475e-05,390.819042
9.19978008e-05,380.972748
9.771245e-05,369.664804
0.000103427099,359.307517
0.000109141748,349.77474
0.000114856397,340.962581
0.00012199096,330.842289
0.000129125522,321.57281
0.000136260084,313.041247
0.000147848285,300.52361
0.000161209204,287.801338
0.000174570123,276.56916
0.000190144224,265.001472
0.000206824916,254.091217
0.000223505608,244.426392
0.000237389159,237.171713
0.000251272709,230.526943
0.000272098035,221.530324
0.000287706402,215.437981
0.000305039584,209.228196
0.000322372766,203.526241
0.000339705948,198.266475
0.000370012478,189.974323
0.000391652417,184.652111
0.000413292357,179.753597
0.000448440693,172.566446
0.000488965881,165.261834
0.00052949107,158.812802
0.000576729092,152.171169
0.000610458719,147.908332
0.000661053158,142.13673
0.000698973167,138.228327
0.000741083558,134.244597
0.000804249145,128.866416
0.000846359536,125.620555
0.000898933051,121.892884
0.000951506567,118.478624
0.00100408008,115.336188
0.0010566536,112.431323
0.00112229,109.095271
0.0012207446,104.605211
0.0013191992,100.627756
0.00144211672,96.2458085
0.00156503423,92.3908932
0.00169813214,88.6982705
0.00180043794,86.1428732
0.00195389664,82.693038
0.00212006525,79.3884594
0.00224779086,77.1016109
0.00237551647,75.0018188
0.00256710489,72.15113
0.00272656636,70.0113848
0.00288602782,68.0515792
0.00304548928,66.2478348
0.00320495074,64.5804862
0.00350357477,61.7701036
0.00370265745,60.0885812
0.00390174014,58.5375096
0.00424983003,56.0923108
0.00462265285,53.7862179
0.00499547567,51.7434957
0.00530578082,50.2102598
0.00577123853,48.1467544
0.00623669625,46.3189444
0.00662410259,44.9470388
0.00701150892,43.6905521
0.00759261843,41.9894815
0.00802815399,40.8376469
0.00851181877,39.6636986
0.00899548355,38.5858425
0.00947914833,37.5916553
0.0103248212,36.0244687
0.0109286616,35.0187139
0.0115325021,34.0931213
0.0125132806,32.7352635
0.0136440947,31.3554614
0.0147749088,30.1375094
0.0160930377,28.8834458
0.0170342285,28.0787006
0.0184460148,26.9893487
0.019504134,26.2518221
0.0206791816,25.5002271
0.0224417529,24.4858055
0.0240376003,23.66557
0.0253,23.0726298
0.0263462105,22.6139772
0.0284386315,21.7740506
0.0307176715,20.959038
0.0331833305,20.1739931
0.0368109096,19.1663084
0.0402407976,18.3423147
0.0436706856,17.6178888
0.0473846471,16.9244276
0.0516667558,16.2201814
0.0559488644,15.5989491
0.0591582605,15.1785803
0.0627223136,14.7504023
0.0680683933,14.1728695
0.0716324464,13.8246385
0.076082056,13.4250521
0.0805316656,13.0594082
0.0849812752,12.7231976
0.0922084846,12.2305356
0.100541284,11.7306954
0.106096483,11.4311906
0.111651683,11.1546879
0.122054924,10.6894971
0.132458165,10.2812977
0.143723033,9.89135179
0.152381782,9.62220149
0.165369905,9.25989383
0.17639304,8.98526689
0.186612123,8.75344101
0.196831205,8.5405635
0.207050288,8.3442665
0.224797398,8.03710026
0.239853453,7.80498528
0.253349626,7.61570648
0.265285917,7.46120415
0.283033027,7.25099809
0.294811991,7.12284261
0.31836992,6.88991355
0.351328795,6.60778463
0.38935836,6.3326865
0.422796847,6.12621553
0.4603468,5.9261003
0.494097767,5.76991126
0.53133524,5.61930558
0.56682946,5.49379735
0.60232368,5.38344448
0.659002753,5.23403586
0.70880634,5.1259929
0.74430056,5.06051956
0.822744473,4.94554104
0.88627744,4.8790314
0.92177166,4.85130296
0.992218403,4.81508542
1.06374854,4.80300032
1.13473698,4.81538604
1.1702312,4.8308812
1.24121964,4.8814034
1.29729954,4.94100916
1.3477023,5.01088182
1.41869074,5.13875995
1.47193207,5.2606046
1.5251734,5.40848744
1.57841473,5.58693056
1.63165606,5.8018144
1.68489739,6.06085012
1.72039161,6.26298885
1.73813872,6.37426534
1.77363294,6.62002713
1.79138005,6.75581875
1.82687427,7.057066
1.86236849,7.40409719
1.88898915,7.69985112
1.90673626,7.91648381
1.93335693,8.27475091
1.95110404,8.53863215
1.96885115,8.82516648
1.99271434,9.25082273
2.01046145,9.60146118
2.03096603,10.0480821
2.04871314,10.4754697
2.0575867,10.7050265
2.07533381,11.1994751
2.09308092,11.7466016
2.11260274,12.418589
2.13212456,13.1761825
2.14987167,13.9519378
2.16406936,14.6417961
2.1711682,15.0126523
2.18536589,15.8122327
2.19246474,16.2436823
2.20666242,17.177654
2.21376127,17.6837126
2.22795896,18.7841076
2.2350578,19.3830988
2.24925549,20.692109
2.25990375,21.7834322
2.27055202,22.9824438
2.28120029,24.3038302
2.29184855,25.7648657
2.30249682,27.3859769
2.31314508,29.1914565
2.32379335,31.2103699
2.33444162,33.4777202
2.33799104,34.295799
2.34508988,36.0359545
2.35218873,37.9281961
2.35928757,39.9907256
2.36283699,41.092285
2.36993584,43.450612
2.37703468,46.0381019
2.38413352,48.8852662
2.38768295,50.4171551
2.39478179,53.7227067
2.40188063,57.3894153
2.40897948,61.4713652
2.4125289,63.6877303
2.41607832,66.0330112
2.41962774,68.5172845
2.42317717,71.1516151
2.42672659,73.9481729
2.43027601,76.9203648
2.43382543,80.0829863
2.43737485,83.4523932
2.44092428,87.0466988
2.4444737,90.8859997
2.44802312,94.9926355
2.45334725,101.709047
2.45689667,106.599293
2.4604461,111.857469
2.46399552,117.520437
2.46931965,126.865936
2.47286907,133.73387
2.47464378,137.379505
2.47819321,145.132549
2.48174263,153.558546
2.48351734,158.047537
2.48706676,167.630458
2.48884147,172.747758
2.49239089,183.698629
2.49482166,191.797469
2.49771503,202.137629
2.49948974,208.887427
2.50303916,223.407139
2.50481387,231.220292
2.50836329,248.073354
2.510138,257.166676
2.51368743,276.835417
2.51634949,293.014951
2.5181242,304.550058
2.51989892,316.731212
2.52256098,336.310375
2.52433569,350.303862
2.5261104,365.109425
2.52788512,380.781842
2.52965983,397.379347
2.53143454,414.963671
2.53320925,433.600017
2.53498396,453.356961
2.53675867,474.30624
2.53853338,496.522398
2.54030809,520.082247
2.5420828,545.064102
2.54385751,571.546723
2.54563222,599.607898
2.54740694,629.322581
2.54918165,660.760508
2.55184371,711.279816
2.55450578,765.963931
2.55734532,828.941682
2.55947497,879.259403
2.56231451,950.178801
2.56586393,1043.97916
2.57367266,1257.46525
2.5765122,1330.37033
2.57864185,1380.35502
2.58006162,1410.61056
2.58148139,1437.89023
2.58290116,1461.7637
2.58432092,1481.83216
2.58574069,1497.74368
2.58716046,1509.20771
2.58858023,1516.00784
2.58985802,1518.02904
2.59212965,1511.95737
2.59354942,1501.98738
2.59496919,1487.47116
2.59638896,1468.67055
2.59780873,1445.91465
2.5992285,1419.58594
2.60064827,1390.10513
2.60277792,1340.94668
2.60561746,1268.54269
2.61555584,996.047218
2.61839538,921.956111
2.61981514,886.392233
2.62265468,818.625964
2.62407445,786.515824
2.62549422,755.619201
2.62726893,718.711987
2.62904364,683.69408
2.63081835,650.529304
2.63259306,619.165224
2.63436777,589.537737
2.63614249,561.574811
2.6379172,535.199482
2.64057926,498.439013
2.64324133,464.801446
2.6459034,434.022486
2.64856546,405.849902
2.65122753,380.047169
2.6538896,356.39526
2.65655166,334.693199
2.65921373,314.757802
2.66098844,302.366293
2.66365051,285.014023
2.66542522,274.20861
2.66808728,259.049468
2.66986199,249.591857
2.67341142,232.090637
2.67518613,223.989651
2.67873555,208.957946
2.68228497,195.334643
2.68583439,182.958437
2.68938382,171.689051
2.69293324,161.404291
2.69648266,151.997521
2.70003208,143.375491
2.7035815,135.456484
2.70713093,128.168735
2.71068035,121.449073
2.71422977,115.241769
2.7195539,106.785253
2.72310332,101.655339
2.72665275,96.8883099
2.73197688,90.34785
2.73730101,84.4556546
2.74262515,79.1306018
2.74794928,74.3036293
2.75327341,69.9156886
2.75859754,65.9160831
2.76392168,62.2611139
2.76924581,58.9129703
2.77456994,55.8388167
2.78166879,52.117222
2.78521821,50.4016137
2.79231705,47.2289401
2.79586648,45.7606716
2.80296532,43.0355272
2.81006416,40.5635985
2.81361359,39.4130504
2.82071243,37.2661238
2.82958599,34.8416657
2.83845954,32.6686671
2.84555838,31.0889028
2.85265723,29.6343179
2.86330549,27.6598811
2.87040434,26.4661756
2.87750318,25.3596442
2.88460203,24.3321642
2.89525029,22.9236317
2.90234914,22.0639877
2.90944798,21.2614584
2.91654682,20.5112165
2.92364567,19.8089327
2.93074451,19.1507157
2.93784336,18.5330602
2.9449422,17.9528021
2.95913989,16.8932991
2.97333758,15.9523605
2.98753526,15.1135756
3.00173295,14.3632826
3.01593064,13.6900364
3.03012833,13.0841928
3.04432602,12.5375802
3.05674899,12.1023857
3.06739726,11.7581382
3.07982024,11.3869438
3.09407092,10.9976396
3.1083746,10.6421213
3.1224133,10.3239916
3.14016041,9.96082552
3.16678107,9.48726854
3.19340174,9.08653874
3.21114885,8.85408604
3.22889596,8.64606289
3.25551663,8.37463588
3.27326373,8.21780556
3.29101084,8.07825608
3.31763151,7.8981496
3.35312573,7.70618498
3.38861995,7.56210235
3.42411417,7.45978462
3.45960839,7.39455056
3.49510261,7.3628529
3.53059683,7.36205962
3.58383816,7.41489255
3.61933238,7.48454448
3.6548266,7.58119354
3.69011664,7.70414646
3.74136662,7.93166888
3.79031662,8.20615865
3.82294995,8.4226204
3.85558329,8.66814989
3.88963801,8.95809068
3.92084996,9.25702418
3.95348329,9.60720192
3.98611663,10.0003534
4.01874996,10.4420297
4.0513833,10.9390077
4.08401663,11.4996062
4.11664997,12.1341124
4.1492833,12.855364
4.1737583,13.4628169
4.19007497,13.9039969
4.20639164,14.3774982
4.22270831,14.8866485
4.23902497,15.4352592
4.26349998,16.3419384
4.27981664,17.0099168
4.29613331,17.736006
4.31897664,18.8646058
4.33202998,19.5767024
4.34834665,20.5459219
4.36139998,21.3926516
4.37445331,22.3112245
4.38750665,23.3108038
4.39403331,23.844265
4.40708665,24.9861505
4.42013998,26.2398054
4.43319332,27.6218299
4.44624665,29.1522068
4.45277332,29.9804083
4.46582665,31.7804155
4.47887999,33.8000289
4.48540665,34.9045914
4.49193332,36.0801295
4.49845999,37.3333955
4.50498665,38.6719922
4.51151332,40.1045057
4.52130332,42.4510057
4.52782999,44.1638354
4.53435666,46.0109463
4.54088332,48.0078046
4.55067332,51.3235654
4.55719999,53.7789159
4.56372666,56.4596967
4.57025332,59.3960625
4.57351666,60.9709247
4.58004332,64.3590389
4.58656999,68.103744
4.59309666,72.2592736
4.59962333,76.8905864
4.60288666,79.4085215
4.60941333,84.9053711
4.61267666,87.9104345
4.61757166,92.7811043
4.62083499,96.2955257
4.62572999,102.017597
4.62899333,106.165659
4.63388833,112.952931
4.63715166,117.898377
4.64204666,126.03439
4.64530999,131.995819
4.65020499,141.861715
4.65183666,145.423722
4.6551,153.003841
4.65673166,157.039123
4.659995,165.647514
4.66162666,170.24155
4.66489,180.067191
4.66652166,185.324422
4.669785,196.598745
4.67141666,202.647349
4.67468,215.654949
4.67631166,222.652821
4.679575,237.744796
4.68120666,245.88695
4.68447,263.497212
4.68773333,283.076942
4.69018083,299.217132
4.69262833,316.747813
4.69426,329.277614
4.69589166,342.53478
4.69833916,363.892064
4.69997083,379.187926
4.7016025,395.395063
4.70323416,412.57244
4.70486583,430.781568
4.7064975,450.086134
4.70812916,470.55147
4.70976083,492.243797
4.7113925,515.229204
4.71302416,539.572288
4.71465583,565.334394
4.7162875,592.57136
4.718735,636.292973
4.72101933,680.282473
4.72363,734.333181
4.725588,777.434778
4.72819867,838.034034
4.73080933,901.609018
4.73798867,1081.66068
4.74059933,1143.2574
4.74255733,1185.55326
4.74386267,1211.19504
4.745168,1234.35482
4.74647333,1254.6714
4.74777867,1271.80981
4.749084,1285.4741
4.75038933,1295.41959
4.75169467,1301.46353
4.7526084,1303.30962
4.75365267,1302.98853
4.754958,1298.95226
4.75626333,1290.95407
4.75756867,1279.14565
4.758874,1263.74488
4.76017933,1245.02616
4.76148467,1223.30874
4.76344267,1185.88465
4.76540067,1143.76406
4.76801133,1082.4735
4.77519067,903.673718
4.77780133,840.683188
4.780412,780.723478
4.78171733,752.089247
4.784328,697.752012
4.78644917,656.579823
4.78889667,612.405408
4.79052834,584.901535
4.79216,558.905722
4.79379167,534.364876
4.79623917,500.149647
4.79787084,478.975971
4.7995025,459.033842
4.80195,431.284049
4.80358167,414.131141
4.80521334,397.982016
4.80766084,375.508726
4.8092925,361.610198
4.81092417,348.515821
4.81337167,330.272463
4.81581917,313.567728
4.81826667,298.258194
4.82153,279.793333
4.82316167,271.318291
4.826425,255.729435
4.82805667,248.5604
4.83132,235.348992
4.83295167,229.262021
4.836215,218.025306
4.83784667,212.839531
4.84111,203.252084
4.84274167,198.82124
4.846005,190.619583
4.84763667,186.825073
4.85253167,176.540519
4.85609227,169.988339
4.86069001,162.536183
4.86558501,155.697791
4.87048001,149.842617
4.87537501,144.846357
4.88027001,140.605766
4.88353334,138.155442
4.89006001,134.061841
4.89332334,132.381955
4.89985001,129.679422
4.90311334,128.631211
4.90964001,127.087599
4.91616668,126.223943
4.92269334,125.985701
4.92595668,126.087844
4.93248334,126.714611
4.93901001,127.885529
4.94553668,129.585711
4.95532668,133.116422
4.96185334,136.128607
4.96838001,139.681028
4.97490668,143.793567
4.98070334,147.937738
4.9865,152.569743
4.99432,159.645064
4.99835,163.688022
5.00641,172.655324
5.01044,177.613785
5.0185,188.58014
5.024545,197.815996
5.03059,208.021535
5.036635,219.306122
5.040665,227.490811
5.044695,236.254305
5.05074,250.590644
5.05477,261.021824
5.0588,272.223763
5.064845,290.626442
5.068875,304.078329
5.072905,318.583271
5.07895,342.545652
5.08298,360.166172
5.08701,379.264087
5.09104,399.997713
5.09507,422.546529
5.0991,447.114437
5.10313,473.93359
5.10716,503.268866
5.11119,535.423101
5.11522,570.743209
5.117235,589.712659
5.121265,630.546281
5.125295,675.655536
5.12731,699.986925
5.1303325,738.923681
5.1323475,766.632923
5.13537,811.057916
5.137385,842.731035
5.1404075,893.604206
5.1424225,929.939228
5.145445,988.401828
5.14746,1030.22643
5.1504825,1097.62663
5.153505,1171.13021
5.1565275,1251.35409
5.15955,1338.96364
5.1625725,1434.66724
5.165595,1539.2057
5.16761,1614.1793
5.169625,1693.63699
5.17164,1777.79258
5.173655,1866.84522
5.17567,1960.97087
5.177685,2060.31161
5.181312,2252.53102
5.18373,2390.24335
5.186148,2535.35298
5.18776,2635.96346
5.190984,2845.39366
5.202268,3613.07986
5.205492,3816.02959
5.20791,3953.36742
5.209522,4035.46249
5.211134,4108.52296
5.212746,4171.36509
5.214358,4222.91588
5.21597,4262.25578
5.217582,4288.65788
5.22,4302.97233
5.221612,4295.38115
5.223224,4274.2051
5.224836,4239.83727
5.226448,4192.90792
5.22806,4134.2559
5.229672,4064.89227
5.231284,3985.95876
5.232896,3898.68423
5.235314,3754.92021
5.238538,3545.8671
5.247404,2936.26209
5.250628,2721.44492
5.253852,2516.88065
5.255464,2419.15024
5.258688,2233.60351
5.2603,2145.94781
5.2633225,1990.87205
5.2653375,1894.13172
5.2673525,1802.56731
5.2693675,1716.01376
5.27239,1595.15193
5.2754125,1484.40736
5.278435,1383.02155
5.2814575,1290.23423
5.28448,1205.30792
5.2875025,1127.54305
5.290525,1056.28638
5.2935475,990.934835
5.29657,930.936261
5.2995925,875.788148
5.3016075,841.490742
5.30463,793.436802
5.306645,763.496504
5.310675,708.180655
5.314705,658.336792
5.31672,635.259723
5.32075,592.429515
5.32478,553.600216
5.326795,535.540478
5.330825,501.873512
5.334855,471.172536
5.338885,443.113674
5.342915,417.413956
5.346945,393.825643
5.350975,372.131367
5.355005,352.139987
5.359035,333.683044
5.363065,316.611739
5.36911,293.318804
5.37314,279.167228
5.37717,266.001119
5.383215,247.910876
5.387245,236.845623
5.391275,226.497773
5.39732,212.192353
5.403365,199.191497
5.40941,187.343559
5.415455,176.517969
5.4215,166.601871
5.427545,157.497356
5.43359,149.119183
5.44165,138.950793
5.44568,134.253192
5.45374,125.547919
5.45777,121.510883
5.46583,114.003015
5.47389,107.174687
5.47792,103.990185
5.48598,98.0364561
5.492025,93.9037779
5.49807,90.029931
5.50613,85.2313368
5.51419,80.8114313
5.52225,76.7315661
5.53434,71.1763979
5.5424,67.807265
5.55046,64.6763158
5.55852,61.7616862
5.56658,59.0439551
5.57464,56.5058255
5.5827,54.1318529
5.59076,51.9082128
5.59882,49.8225021
5.60688,47.8635677
5.61897,45.1411547
5.62703,43.457289
5.63509,41.8690459
5.64718,39.6506329
5.6633,36.966431
5.67136,35.7294063
5.68748,33.4420508
5.7036,31.3767669
5.71972,29.505744
5.72778,28.6355646
5.73987,27.4045436
5.749945,26.4416931
5.762035,25.355647
5.77614,24.1761218
5.794275,22.784199
5.80435,22.0657677
5.8245,20.7342288
5.84465,19.528405
5.854725,18.9677602
5.874875,17.9225356
5.895025,16.9688799
5.915175,16.0964368
5.935325,15.2962753
5.955475,14.5606606
5.975625,13.8828669
5.995775,13.2570233
6.015925,12.6779871
6.0351701,12.1644925
6.0535103,11.7078407
6.076375,11.1791106
6.096525,10.7470775
6.116675,10.3439044
6.1469,9.78789692
6.16705,9.44657283
6.1872,9.12649388
6.217425,8.68254186
6.24765,8.2775632
6.28795,7.79080148
6.32825,7.35697793
6.36855,6.968884
6.40885,6.62050534
6.429,6.4595987
6.4693,6.16157587
6.499525,5.9569649
6.52975,5.76694624
6.57005,5.53410034
6.6305,5.22354808
6.6708,5.03910842
6.7111,4.87055689
6.77155,4.6440723
6.81185,4.50866898
6.85215,4.38437161
6.9126,4.21656987
6.9932,4.02321603
7.0335,3.93795351
7.1141,3.78730396
7.1947,3.65992417
7.2753,3.55261216
7.3559,3.46278689
7.4365,3.38835941
7.5171,3.32763554
7.60353411,3.27618612
7.6783,3.24206801
7.7589,3.21522462
7.8395,3.19800804
7.9201,3.18987544
8.0007,3.1904252
8.1216,3.20696044
8.24738569,3.24380425
8.35954276,3.29365142
8.48485705,3.36897671
8.61017134,3.46637135
8.73548563,3.58798017
8.81902849,3.68397168
8.94434278,3.85328987
9.02788564,3.98527715
9.1114285,4.13477965
9.15319993,4.2168279
9.23674279,4.39726269
9.32028565,4.60227877
9.36205708,4.71523731
9.44559994,4.96504571
9.48944471,5.11042971
9.55002851,5.32976471
9.61268566,5.58207486
9.65445709,5.76659742
9.69622852,5.96577535
9.73799995,6.18120388
9.77977138,6.41471338
9.82154281,6.66841237
9.86331424,6.94473989
9.90508567,7.24652997
9.9468571,7.57709116
9.98862853,7.94030562
10.0304,8.34075316
10.0721714,8.78386794
10.1139428,9.2761378
10.1557142,9.82536027
10.1974857,10.4409742
10.2288143,10.9530875
10.2497,11.3216384
10.2705857,11.7141604
10.2914714,12.1328392
10.3123571,12.5801184
10.3332428,13.0587372
10.3541285,13.5717737
10.3750143,14.1226971
10.3959,14.7154289
10.4167857,15.3544157
10.4376714,16.0447154
10.4585571,16.792102
10.4794428,17.6031898
10.5003285,18.4855853
10.5212143,19.4480713
10.5421,20.5008315
10.5629857,21.6557285
10.5838714,22.9266461
10.6047571,24.3299174
10.6235543,25.7219193
10.6381743,26.9000163
10.6507057,27.9836735
10.6611486,28.9436289
10.67368,30.1699848
10.6820343,31.0362697
10.6987428,32.8974181
10.7154514,34.9497029
10.7238057,36.0558769
10.7405143,38.4476519
10.7488686,39.7420685
10.7655771,42.5531648
10.7781086,44.878995
10.79064,47.4165294
10.8031714,50.1923745
10.8157028,53.2374408
10.8282343,56.5878026
10.8365886,59.0115824
10.8449428,61.6040334
10.8574743,65.8445686
10.8658286,68.9331792
10.8741828,72.2557296
10.8867143,77.7320158
10.8950686,81.7524739
10.9034228,86.1067577
10.9117771,90.8327546
10.9180428,94.6470514
10.9243086,98.7153417
10.9326628,104.574869
10.9410171,110.988884
10.9493714,118.02915
10.9577257,125.779305
10.96608,134.337273
10.9744343,143.81825
10.9827886,154.358446
10.9869657,160.075195
10.9911428,166.119782
10.99532,172.517441
11.0015857,182.837195
11.0057629,190.244613
11.0120286,202.234894
11.0162057,210.872385
11.0224714,224.907056
11.0266486,235.057013
11.0329143,251.617967
11.0370914,263.646458
11.0433571,283.362125
11.0475343,297.749432
11.0538,321.449589
11.0558886,329.972646
11.0600657,348.051098
11.0621543,357.642735
11.0663314,378.030268
11.06842,388.869841
11.0725971,411.960743
11.0746857,424.264974
11.0788629,450.536886
11.08304,479.245112
11.0872171,510.684473
