energy [eV],cross section [b]
1e-05,26.56
1.090516e-05,25.4338468
1.176413e-05,24.4877084
1.257105e-05,23.6887593
1.332237e-05,23.0110952
1.474673e-05,21.8715804
1.591407e-05,21.0541346
1.684983e-05,20.4611654
1.835751e-05,19.6029362
2e-05,18.7807561
2.181024e-05,17.9844796
2.35281e-05,17.3154839
2.514186e-05,16.7505604
2.664444e-05,16.2713935
2.949314e-05,15.4656275
3.182781e-05,14.8875995
3.369931e-05,14.4683016
3.671479e-05,13.8614135
4e-05,13.28
4.362039e-05,12.7169595
4.705604e-05,12.2439171
5.028349e-05,11.8444624
5.328858e-05,11.5056452
5.898596e-05,10.93588
6.365529e-05,10.5271502
6.739828e-05,10.2306599
7.342935e-05,9.80151513
8e-05,9.39037805
8.724079e-05,8.9922481
9.41123e-05,8.65774671
0.0001005679,8.37526331
0.0001065787,8.13566313
0.0001179737,7.7327755
0.0001273126,7.44375932
0.0001347988,7.23410946
0.0001468603,6.93067986
0.00016,6.64
0.0001744821,6.35847074
0.0001882251,6.12194281
0.0002011354,5.92221052
0.0002131561,5.7527982
0.0002359458,5.46791755
0.0002546232,5.26355438
0.0002695952,5.11531065
0.0002937188,4.90074581
0.00032,4.69518903
0.0003489633,4.4961231
0.0003764486,4.32887654
0.0004022684,4.18764742
0.0004263093,4.067857
0.0004718883,3.8664148
0.000509243,3.72190722
0.000539187,3.61708222
0.0005874353,3.46535752
0.00064,3.32
0.0006767185,3.228673
0.0007461161,3.0748565
0.000802796,2.96432256
0.0008481141,2.88403763
0.0009209316,2.76767046
0.001,2.656
0.001090509,2.54338185
0.001176399,2.44876516
0.001257084,2.36886751
0.00133221,2.30109849
0.001474644,2.18713524
0.001591377,2.10538231
0.001684952,2.04607935
0.00183573,1.96024275
0.002,1.87800766
0.002181016,1.79837782
0.002352796,1.73147639
0.002514165,1.67498245
0.002664417,1.62706439
0.002949285,1.54648305
0.003182751,1.48867702
0.003369901,1.44674496
0.003671458,1.38605123
0.004,1.3279039
0.004362032,1.27159926
0.00470559,1.22429461
0.005028328,1.18434887
0.005328831,1.15046696
0.005898567,1.09348938
0.006365499,1.05261581
0.006739798,1.02296642
0.007342914,0.98005092
0.008,0.938935881
0.008458971,0.913105377
0.009197267,0.875685933
0.01,0.8398
0.01090508,0.80419837
0.01176397,0.774287224
0.01257082,0.749029005
0.01332207,0.727604893
0.01474641,0.69157667
0.01591374,0.665731149
0.01684949,0.646982875
0.01835728,0.619845797
0.02,0.593846974
0.02121058,0.576652772
0.02316523,0.55179041
0.0253,0.528
0.026790941,0.51309515
0.02961461,0.488016938
0.031926,0.470015993
0.03377718,0.456952377
0.03675714,0.438034588
0.04,0.4199
0.04362031,0.402102184
0.04705588,0.387149025
0.05028326,0.374521876
0.05328829,0.363811425
0.058985643,0.345799881
0.06365496,0.332878862
0.06739795,0.323505935
0.07342912,0.309939057
0.08,0.296941135
0.0845897,0.288775131
0.09197266,0.276945255
0.1,0.2656
0.109050774,0.25433815
0.117639701,0.244876448
0.125708147,0.23688665
0.133220712,0.230109718
0.147464103,0.218713261
0.159137392,0.210537874
0.168494868,0.20460751
0.183572802,0.196023698
0.2,0.1878
0.218101547,0.179841453
0.2352794,0.173154883
0.251416292,0.16750839
0.26644142,0.162718959
0.294928202,0.154664609
0.31827478,0.148886575
0.336989732,0.144695154
0.367145602,0.138628222
0.4,0.132815671
0.422948506,0.129163885
0.459863299,0.123873603
0.5,0.1188
0.545253867,0.113762544
0.588198497,0.109530304
0.628540725,0.105956455
0.666103545,0.102925125
0.737320501,0.097827481
0.795686945,0.09417063
0.842474326,0.09151798
0.917864002,0.087678449
1.0,0.084
1.09050774,0.080459897
1.17639701,0.07748491
1.25708147,0.074972171
1.33220712,0.072840458
1.47464103,0.069254771
1.59137392,0.066681823
1.68494868,0.06481504
1.83572802,0.062112396
2.0,0.059522447
2.18101547,0.057013928
2.352794,0.05490585
2.51416292,0.053125322
2.6644142,0.05161479
2.94928202,0.049073969
3.1827478,0.047250777
3.36989732,0.045927973
3.67145602,0.044012878
4.0,0.042177639
4.36203094,0.040400101
4.70558798,0.038906316
5.02832581,0.037644633
5.32882837,0.036574269
5.89856401,0.034773842
6.36549556,0.033481927
6.73979461,0.032544587
7.34291202,0.03118755
8.0,0.029887098
8.45897011,0.029069915
9.19726597,0.027885843
10.0,0.02675
10.9050774,0.025654231
11.7639701,0.024732317
12.5708147,0.023952861
13.3220711,0.023291014
14.7464103,0.022176483
15.9137392,0.021375726
16.8494868,0.02079419
18.3572802,0.019951417
20.0,0.0191428
21.8101547,0.018358647
23.52794,0.017698909
25.1416292,0.017141115
26.644142,0.016667485
29.4928202,0.015869906
31.827478,0.015296869
33.6989732,0.014880712
36.7145602,0.014277607
40.0,0.013698946
42.2948506,0.013334958
45.9863299,0.012807029
50.0,0.0123
54.5253867,0.011833901
58.8198497,0.011440577
62.8540725,0.011107157
66.6103545,0.010823395
73.7320501,0.010344144
79.5686945,0.009998684
84.2474326,0.009747182
91.7864002,0.009381741
100.0,0.00903
110.668193,0.008663256
119.409789,0.008398007
133.833734,0.008015283
150.0,0.00765
161.18549,0.007449775
179.546925,0.007159222
200.0,0.00688
221.336385,0.006667891
238.819577,0.006513112
267.667468,0.006287654
300.0,0.00607
346.410162,0.005882091
400.0,0.0057
500.0,0.00555
599.999994,0.00553
600.000006,0.00559255291
664.862,0.00563544076
729.55044,0.00571593242
777.764,0.00579888718
853.032,0.00596651181
890.666,0.00606779747
954.084909,0.00626557589
1022.385,0.00651852338
1078.836,0.00676124038
1135.287,0.0070372069
1203.10883,0.00741748515
1267.006,0.00783062084
1323.457,0.00824611974
1379.908,0.00871577904
1436.359,0.00924754849
1486.15301,0.00977585197
1517.13002,0.0101361741
1549.261,0.010538414
1568.078,0.0107885505
1605.712,0.0113240647
1624.529,0.011610834
1662.163,0.0122262889
1699.797,0.0129035624
1728.0225,0.013456946
1756.248,0.0140536197
1793.882,0.0149243349
1822.1075,0.0156404478
1859.7415,0.0166908195
1887.967,0.0175593771
1906.784,0.0181813541
1925.601,0.0188408406
1953.8265,0.0199070712
1972.6435,0.0206741859
1991.4605,0.0214907709
2010.2775,0.0223610827
2029.0945,0.0232898387
2047.9115,0.024282277
2066.7285,0.0253442251
2085.5455,0.0264821789
2104.3625,0.027703394
2123.1795,0.029015991
2141.9965,0.0304290779
2160.8135,0.0319528922
2179.6305,0.0335989652
2198.4475,0.0353803149
2207.856,0.0363262474
2226.673,0.0383387324
2245.49,0.0405271056
2264.307,0.0429116133
2283.124,0.0455153365
2292.5325,0.0469075011
2311.3495,0.0498906507
2320.758,0.051489701
2334.87075,0.0540350852
2344.27925,0.055836984
2358.392,0.0587105799
2372.50475,0.0618066184
2386.6175,0.0651468325
2400.13236,0.0685966914
2412.45143,0.0719754579
2424.2515,0.0754398726
2438.36425,0.0799029037
2452.477,0.0847474792
2466.58975,0.0900123942
2480.7025,0.0957402649
2494.81525,0.10197765
2508.928,0.108775037
2523.04075,0.116186613
2532.44925,0.121497092
2541.85775,0.12712356
2551.26625,0.13308383
2560.67475,0.139395676
2570.08325,0.146076476
2579.49175,0.153142745
2588.90025,0.160609535
2598.30875,0.16848969
2607.71725,0.176792916
2617.12575,0.185524655
2625.5934,0.193749596
2636.8836,0.20524649
2644.4104,0.213235301
2659.464,0.2299247
2674.5176,0.247402908
2704.6248,0.28343648
2719.6784,0.30101145
2734.732,0.317410163
2746.0222,0.328461162
2753.549,0.335038938
2761.0758,0.340864972
2768.6026,0.345842118
2776.1294,0.349882298
2783.6562,0.352910041
2791.183,0.354865719
2798.7098,0.355708261
2806.2366,0.355417113
2817.5268,0.352862829
2825.0536,0.349788783
2832.5804,0.345676509
2840.1072,0.340596175
2847.634,0.334632318
2855.1608,0.327880404
2862.6876,0.320443187
2873.9778,0.308235488
2885.268,0.295083294
2930.4288,0.239251027
2953.0092,0.212574406
2968.0628,0.195987397
2983.1164,0.180519018
2998.17,0.166219307
3012.28275,0.153871977
3026.3955,0.142516801
3038.96244,0.133200403
3048.37094,0.126689612
3059.32525,0.119581979
3073.438,0.111127392
3082.8465,0.105900678
3096.95925,0.0986276999
3106.36775,0.0941305591
3115.77625,0.0898943736
3125.18475,0.0859027175
3134.59325,0.0821400355
3144.00175,0.078591653
3153.41025,0.07524377
3162.81875,0.0720834411
3172.22725,0.0690985479
3181.63575,0.0662777643
3195.7485,0.062331365
3205.157,0.0598761543
3214.5655,0.0575510855
3228.67825,0.0542896027
3242.791,0.051277022
3261.608,0.0476082347
3280.425,0.0442936799
3289.8335,0.0427560541
3308.6505,0.0398968277
3318.059,0.0385668549
3336.876,0.0360873371
3346.2845,0.0349309976
3365.1015,0.0327698249
3374.51,0.0317594531
3393.327,0.0298666102
3402.7355,0.0289796023
3421.5525,0.0273141257
3430.961,0.0265319218
3449.778,0.0250600913
3459.1865,0.0243673737
3478.0035,0.0230612889
3496.8205,0.0218525594
3506.229,0.0212818084
3525.046,0.0202023152
3543.863,0.019199214
3562.68,0.0182656769
3590.9055,0.0169826337
3609.7225,0.0161976878
3628.5395,0.0154635782
3647.3565,0.0147761243
3666.1735,0.0141315572
3684.9905,0.013526473
3703.8075,0.0129577922
3722.6245,0.0124227239
3741.4415,0.0119187347
3760.2585,0.0114435207
3779.0755,0.0109949841
3797.8925,0.0105712113
3831.12859,0.00987793503
3863.752,0.00925908943
3901.386,0.00861199387
3939.02,0.00802780555
3976.654,0.00749879118
3995.471,0.00725287396
4033.105,0.0067945536
4051.922,0.00658084247
4080.1475,0.00627792626
4108.373,0.0059946029
4146.007,0.00564454085
4164.824,0.00548041877
4202.458,0.00517207713
4221.275,0.00502716527
4258.909,0.00475429134
4296.543,0.00450214989
4315.36,0.00438321724
4352.994,0.00415848662
4409.445,0.0038511934
4447.079,0.00366410334
4503.53,0.00340701737
4541.164,0.00324975256
4578.798,0.00310267681
4616.432,0.00296494665
4672.883,0.00277423478
4710.517,0.00265670891
4748.151,0.00254618019
4784.57668,0.00244536154
4819.79403,0.00235323153
4861.053,0.00225148842
4898.687,0.00216408514
4936.321,0.00208145638
4973.955,0.00200326817
5011.589,0.00192921491
5068.04,0.00182528165
5143.308,0.00169874906
5213.5,0.00159176012
5296.60976,0.00147713109
5352.01627,0.00140716945
5407.42278,0.00134185423
5462.82929,0.00128079216
5518.2358,0.00122363022
5573.64231,0.00117005083
5629.04882,0.00111976767
5684.45533,0.00107252212
5739.86184,0.00102808012
5795.26835,0.00098622944
5850.67486,0.000946777317
5906.08137,0.000909548363
5961.48788,0.000874382738
6016.89439,0.000841134543
6072.3009,0.000809670401
6128.47903,0.000779464359
6213.90364,0.000736547913
6327.80312,0.000684425974
6441.7026,0.000637450689
6498.65234,0.000615690294
6612.55182,0.00057527311
6669.50156,0.000556492231
6783.40104,0.000521511609
6840.35078,0.000505215371
6954.25026,0.00047480149
7011.2,0.000460613397
7132.36,0.000432538159
7192.94,0.000419548923
7314.1,0.000395826274
7398.912,0.000381751928
7429.68664,0.000377646877
7459.492,0.000374706764
7477.666,0.000373775664
7498.80842,0.000374165787
7511.65138,0.00037570607
7520.072,0.000377574072
7528.18972,0.000380312385
7538.246,0.00038558318
7542.36544,0.000388590611
7547.9388,0.000393754539
7552.7852,0.000399588476
7555.2084,0.000403107583
7560.0548,0.000411703148
7563.6896,0.000419896874
7567.3244,0.000430092988
7569.7476,0.000438316419
7573.3824,0.00045344718
7575.8056,0.000465926719
7578.2288,0.000480896662
7579.4404,0.000489521078
7581.2578,0.000504178508
7583.0752,0.000521304023
7583.9839,0.000530965547
7585.8013,0.000552923031
7586.71,0.000565433875
7587.9216,0.000583996575
7589.1332,0.00060505949
7590.3448,0.000629087344
7591.5564,0.000656658072
7592.1622,0.000671991884
7593.3738,0.000706296894
7594.2825,0.000735728125
7594.8883,0.000757406982
7595.4941,0.000780951912
7596.4028,0.000820257079
7597.3115,0.000865149569
7598.2202,0.000916736233
7598.826,0.000955520766
7599.1289,0.000976412182
7599.7347,0.00102154893
7600.0376,0.00104595579
7600.3405,0.00107170835
7600.9463,0.00112766233
7601.2492,0.00115809467
7601.855,0.00122453529
7602.1579,0.0012608509
7602.61225,0.00131968909
7602.91515,0.00136211984
7603.3695,0.00143115172
7603.6724,0.00148114897
7604.12675,0.00156286829
7604.42965,0.00162234073
7604.884,0.00172005286
7605.1869,0.00179155094
7605.64125,0.00190971152
7605.94415,0.00199670471
7606.3985,0.00214143546
7606.7014,0.00224874001
7606.85285,0.00230602917
7607.15575,0.00242863568
7607.38292,0.00252828614
7607.6101,0.00263524988
7607.76155,0.00271098019
7608.06445,0.00287414305
7608.36735,0.00305475937
7608.5188,0.00315240044
7608.8217,0.00336418269
7608.97315,0.0034791625
7609.20032,0.00366433147
7609.4275,0.00386638371
7609.65467,0.00408743413
7609.80613,0.00424655269
7610.0333,0.00450492485
7610.26048,0.00478979808
7610.48765,0.00510492105
7610.71483,0.00545472891
7610.942,0.00584449975
7611.16917,0.00628055419
7611.39635,0.00677051236
7611.47207,0.00694735494
7611.62352,0.00732362787
7611.69925,0.00752392223
7611.8507,0.00795122619
7611.92642,0.00817930337
7612.07787,0.0086672865
7612.1536,0.00892852387
7612.30505,0.00948922325
7612.38077,0.00979036263
7612.53222,0.0104389496
7612.68368,0.0111565597
7612.81998,0.0118697613
7612.97143,0.0127480176
7613.09259,0.0135247968
7613.18346,0.0141561662
7613.24404,0.0146025582
7613.3652,0.015562618
7613.48636,0.016622726
7613.54694,0.017194688
7613.6681,0.0184326033
7613.78926,0.0198116467
7613.84984,0.0205608705
7613.94071,0.0217681818
7614.00129,0.022633927
7614.09216,0.0240339569
7614.18303,0.0255695877
7614.2739,0.0272588357
7614.33448,0.0284806165
7614.42535,0.0304745847
7614.51622,0.0326871127
7614.60709,0.0351511635
7614.69796,0.0379061172
7614.72825,0.0388969984
7614.78883,0.0409993196
7614.81912,0.042115126
7614.8797,0.0444880825
7614.90999,0.0457505615
7614.97057,0.0484422885
7615.00086,0.0498780918
7615.06144,0.0529478204
7615.12202,0.0563093464
7615.1826,0.0600004863
7615.24318,0.0640653193
7615.30376,0.068555458
7615.36434,0.0735316271
7615.40978,0.0776254258
7615.44007,0.0805459649
7615.47035,0.0836329868
7615.50065,0.0868992049
7615.53094,0.0903585496
7615.56122,0.0940263094
7615.59152,0.0979192891
7615.62181,0.102055991
7615.65209,0.10645682
7615.68239,0.111144317
7615.71268,0.116143431
7615.74296,0.12148182
7615.7884,0.130193689
7615.81869,0.136522398
7615.86413,0.146897521
7615.89442,0.154469983
7615.93985,0.166946246
7615.97014,0.176099302
7615.98529,0.180952712
7616.01557,0.191262637
7616.04587,0.202450059
7616.06101,0.208403072
7616.0913,0.221095337
7616.10644,0.227864397
7616.13674,0.242330647
7616.15188,0.250064185
7616.18217,0.266632647
7616.19731,0.275512101
7616.22761,0.294584916
7616.24275,0.304833054
7616.27304,0.32690494
7616.28818,0.338796294
7616.31848,0.364477828
7616.34877,0.392974953
7616.36391,0.408397719
7616.37905,0.424673399
7616.40177,0.450812726
7616.41692,0.469480695
7616.43206,0.489220825
7616.44721,0.510105861
7616.46235,0.532213417
7616.4775,0.555626134
7616.49264,0.580431782
7616.50779,0.606723288
7616.52293,0.634598659
7616.53808,0.66416077
7616.55322,0.695516972
7616.56837,0.728778463
7616.58351,0.764059362
7616.59866,0.801475411
7616.62138,0.861855138
7616.63652,0.905108478
7616.65924,0.974746158
7616.68196,1.0503485
7616.70922,1.14919911
7616.73345,1.24450816
7616.75768,1.34647192
7616.79403,1.50995639
7616.86067,1.82245558
7616.8849,1.92945533
7616.90307,2.00295499
7616.91519,2.0475255
7616.9273,2.08778977
7616.93942,2.12311774
7616.95154,2.15292461
7616.96365,2.17669315
7616.97577,2.19399504
7616.98788,2.2045095
7617.0,2.20803783
7617.01817,2.200121
7617.03029,2.18618328
7617.04241,2.16560398
7617.05452,2.13875974
7617.06664,2.10612584
7617.07875,2.06825603
7617.09087,2.02576056
7617.10904,1.95475769
7617.13328,1.84996515
7617.21809,1.45431835
7617.24232,1.34651265
7617.25444,1.2947375
7617.27867,1.19603265
7617.29078,1.14924102
7617.31804,1.05039051
7617.33319,0.999314161
7617.34834,0.950925414
7617.36348,0.905149992
7617.37862,0.861896357
7617.39377,0.821061179
7617.40891,0.78253373
7617.43163,0.728818315
7617.45435,0.679646901
7617.47707,0.634637089
7617.49978,0.59342347
7617.5225,0.555663041
7617.54522,0.521037911
7617.56036,0.499551112
7617.58308,0.469515543
7617.59823,0.450847066
7617.62095,0.424706987
7617.63609,0.408430813
7617.65123,0.39300756
7617.66638,0.378383737
7617.69667,0.351338342
7617.71182,0.33882703
7617.7421,0.315625374
7617.77239,0.294613913
7617.80269,0.27554028
7617.83297,0.258185078
7617.86326,0.242357289
7617.89356,0.227890319
7617.92384,0.21463859
7617.95413,0.202474629
7617.96928,0.196765055
7617.99957,0.186027291
7618.02986,0.176122338
7618.06015,0.166968713
7618.0753,0.162650794
7618.10558,0.15449164
7618.13587,0.146918665
7618.18131,0.13654281
7618.22674,0.12720993
7618.27218,0.118787444
7618.31761,0.111162776
7618.36305,0.104239912
7618.40848,0.0979366189
7618.43878,0.0940432892
7618.48421,0.0886202919
7618.52965,0.0836489872
7618.57508,0.0790811822
7618.60537,0.0762391733
7618.66595,0.0709932904
7618.69624,0.068569898
7618.75682,0.0640792556
7618.8174,0.0600139484
7618.84769,0.0581243552
7618.90827,0.0546026793
7618.96885,0.0513910192
7619.04457,0.0477594192
7619.1203,0.044499535
7619.18088,0.0421262361
7619.24146,0.0399381461
7619.30204,0.0379165908
7619.36262,0.0360451788
7619.4232,0.0343094765
7619.48378,0.0326967354
7619.54436,0.0311956623
7619.60494,0.0297962259
7619.66552,0.0284894916
7619.7261,0.0272674813
7619.78668,0.0261230538
7619.87755,0.0245380435
7619.93813,0.023560933
7619.99871,0.0226416411
7620.08958,0.0213614752
7620.18045,0.0201881421
7620.27132,0.0191101091
7620.39248,0.0178038436
7620.45306,0.0172011378
7620.57422,0.0160854842
7620.6348,0.0155686386
7620.75596,0.0146083123
7620.81654,0.0141617923
7620.90741,0.0135302371
7620.98314,0.0130363682
7621.07401,0.0124794243
7621.18002,0.0118746847
7621.31632,0.0111612447
7621.46778,0.0104433833
7621.61923,0.00979455836
7621.77067,0.00920620384
7621.92213,0.00867104081
7622.07358,0.00818285225
7622.22502,0.00773630263
7622.37648,0.00732679222
7622.4522,0.00713466092
7622.60365,0.00677340858
7622.7551,0.00644019061
7622.98228,0.00598684404
7623.13372,0.00571209625
7623.28517,0.00545690513
7623.51235,0.00510688054
7623.73952,0.00479155053
7623.9667,0.00450647901
7624.19387,0.0042479165
7624.42105,0.00401267649
7624.64822,0.00379803702
7624.8754,0.00360166178
7625.1783,0.00336479723
7625.32975,0.00325591651
7625.63265,0.00305506159
7625.7841,0.0029623207
7626.087,0.00279053115
7626.23845,0.00271089163
7626.3899,0.00263506762
7626.61708,0.00252796603
7626.9957,0.00236539703
7627.2986,0.0022480237
7627.45005,0.00219312094
7627.75295,0.00209018204
7628.2073,0.00195111618
7628.5102,0.00186739889
7628.96455,0.00175352461
7629.26745,0.00168452473
7629.7218,0.00159010443
7630.0247,0.00153256332
7630.47905,0.00145340405
7630.78195,0.0014049172
7631.08485,0.00135951936
7631.38775,0.0013169534
7631.8421,0.0012579154
7632.145,0.00122146843
7632.7508,0.00115476919
7633.3566,0.00109532796
7633.6595,0.00106800399
7634.2653,0.0010175973
7634.8711,0.000972217009
7635.4769,0.000931215224
7636.0827,0.000894045158
7636.6885,0.000860242787
7637.2943,0.000829412258
7638.203,0.000788009426
7638.8088,0.00076322471
7639.4146,0.000740413819
7640.0204,0.000719371829
7640.9291,0.000690740093
7641.8378,0.000665176456
7642.4436,0.00064962544
7643.6552,0.000621623731
7644.8668,0.000597168963
7646.0784,0.000575682694
7647.29,0.000556699773
7649.1074,0.000532112593
7650.9248,0.000511324676
7652.7422,0.000493583589
7654.5596,0.000478314373
7655.7712,0.000469283938
7656.9828,0.000461044968
7659.406,0.000446587589
7660.6176,0.000440222404
7663.0408,0.000428922954
7665.464,0.000419220975
7667.8872,0.000410819756
7670.3104,0.000403488435
7672.7336,0.00039704521
7676.3684,0.000388736864
7681.2148,0.00037963678
7686.0612,0.000372236095
7693.3308,0.000363417097
7698.23778,0.000358596367
7705.81028,0.000352438451
7713.928,0.000347095946
7722.34862,0.000342529343
7735.19158,0.000336876408
7744.218,0.000333566122
7765.78448,0.000327068871
7783.95848,0.000322582994
7827.15202,0.000313847014
7895.668,0.000302613101
7980.48,0.000290635934
8101.64,0.000275372316
8222.8,0.00026152305
8361.2753,0.0002470292
8453.59216,0.000238045208
8592.06746,0.000225468809
8684.38433,0.00021763041
8869.01806,0.000203126555
8961.33493,0.000196409019
9145.96866,0.000183930229
9330.60239,0.000172597911
9515.23612,0.000162278239
9699.86985,0.000152856633
9937.22094,0.000141906864
10174.572,0.000132100545
10332.8061,0.000126123324
10570.1572,0.000117901943
10728.3912,0.000112868567
10965.7423,0.000105916753
11123.9764,0.000101643683
11361.3275,9.57199262e-05
11519.5615,9.20656559e-05
11677.7956,8.86265311e-05
11836.0296,8.53865743e-05
11994.2637,8.23312435e-05
