energy [eV],cross section [b]
1e-05,305.107273
1.06256255e-05,295.988742
1.1251251e-05,287.64175
1.18768765e-05,279.963293
1.25025021e-05,272.868643
1.36757847e-05,260.901006
1.44579731e-05,253.745314
1.52401615e-05,247.147833
1.6609187e-05,236.743003
1.80760839e-05,226.933648
1.95429807e-05,218.250574
2.13769688e-05,208.678351
2.25996276e-05,202.954924
2.44336157e-05,195.189308
2.5962245e-05,189.355746
2.8255189e-05,181.5098
2.97838183e-05,176.790416
3.15037176e-05,171.896758
3.34148867e-05,166.908417
3.53260559e-05,162.330567
3.7237225e-05,158.109831
3.93875294e-05,153.733233
4.29716888e-05,147.182189
4.65558482e-05,141.40302
5.07379654e-05,135.449844
5.52190614e-05,129.837366
5.97001575e-05,124.869289
6.34351516e-05,121.137246
6.90376429e-05,116.117767
7.46401341e-05,111.674602
7.93098114e-05,108.336873
8.39794886e-05,105.281553
8.86491658e-05,102.470936
9.3318843e-05,99.8740118
9.91571079e-05,96.8889309
0.000107914505,92.8740875
0.00011375277,90.4591292
0.000120321549,87.954988
0.000131270486,84.2066927
0.000142219424,80.9000289
0.000154995011,77.4937924
0.000164120953,75.3081666
0.000177809864,72.3508496
0.000193782545,69.3044758
0.000205192255,67.3497551
0.00022230682,64.704867
0.000235144171,62.9135022
0.000249409163,61.0874692
0.000263674155,59.4116918
0.000277939147,57.8666319
0.000293989048,56.264508
0.000320741262,53.8663741
0.000338576071,52.4280536
0.00035641088,51.0990816
0.000389857841,48.8572768
0.000423304802,46.8866947
0.000459541799,44.99943
0.000487419846,43.6930911
0.000529236916,41.9306491
0.000574542229,40.242718
0.000609396763,39.0743511
0.000644251296,38.0021141
0.000696533096,36.5472643
0.000740109984,35.4543537
0.000783686871,34.4538986
0.000827263759,33.533556
0.000870840647,32.6831732
0.000952563666,31.2486647
0.00100704568,30.3909183
0.00106152769,29.6000663
0.00115688484,28.3527816
0.00125905907,27.1768313
0.00136123329,26.1358557
0.00148897663,24.988229
0.00157413886,24.3020088
0.0017018822,23.3708958
0.00180835629,22.6714057
0.00196806743,21.7305628
0.00207454152,21.1646085
0.00219433819,20.5777273
0.00232745745,19.9794597
0.00246057671,19.4303931
0.00259369596,18.9241306
0.00274347178,18.3991421
0.00299312034,17.6132563
0.00324276891,16.9198951
0.00353406721,16.2055773
0.00384619038,15.5320551
0.00415831355,14.9357867
0.00441846826,14.4878136
0.00480870031,13.8852233
0.00519893237,13.3517335
0.00552419085,12.9509136
0.00584944932,12.5839581
0.00633733703,12.0873578
0.0067032935,11.7509554
0.00710994798,11.4079894
0.00751660245,11.0931927
0.00792325692,10.802904
0.008635004,10.3449866
0.00914342384,10.0510882
0.00965184368,9.78067192
0.0104780895,9.38383934
0.0114315675,8.98034681
0.0123850455,8.62425578
0.0134975956,8.25728779
0.0142923197,8.02172937
0.0154844057,7.70287341
0.0163785697,7.48682309
0.0173721736,7.26650802
0.0183657775,7.06424097
0.0193593815,6.8776774
0.0204773102,6.68414198
0.0217195636,6.48676821
0.0229618171,6.30554575
0.0253,6.00117622
0.0274516405,5.75596033
0.0303204946,5.47025897
0.0329795063,5.23922266
0.0358922037,5.01597875
0.038804901,4.81814299
0.0412326346,4.66937413
0.0436603682,4.53306597
0.0473019686,4.34841952
0.0515511098,4.1579307
0.0545863843,4.03553543
0.0576216587,3.9228162
0.0606569332,3.81855068
0.0663492119,3.64239265
0.0701440644,3.53688229
0.0739389169,3.43947082
0.0782086007,3.33831836
0.0829531158,3.23504639
0.0900698885,3.09543587
0.0977803191,2.96139347
0.106678066,2.82477536
0.115575812,2.7039043
0.122249864,2.62183496
0.129666137,2.5379934
0.140790546,2.42456096
0.148206819,2.3559512
0.157479016,2.27689441
0.166751213,2.20433448
0.17602341,2.13741288
0.185295606,2.07542283
0.196888172,2.00397013
0.214277021,1.90751237
0.23166587,1.82176203
0.253406282,1.72679719
0.275146693,1.64291785
0.298700619,1.56220492
0.316821256,1.50610601
0.34400221,1.43010591
0.362122846,1.38408332
0.384778175,1.3310067
0.407433505,1.28225268
0.430088834,1.23725869
0.452744163,1.19556082
0.481068993,1.14748163
0.523556238,1.08256679
0.551881068,1.04338453
0.574532612,1.01409401
0.626923995,0.952366349
0.680771985,0.896320406
0.729833613,0.850646909
0.77410888,0.813156979
0.818384146,0.778719857
0.862659412,0.746953877
0.912474625,0.71401352
0.967829786,0.680451964
1.02318495,0.649684785
1.07854011,0.621362703
1.14082159,0.592059883
1.17542549,0.576828875
1.24463329,0.548372663
1.27923719,0.53505946
1.38304889,0.498330692
1.46957596,0.470935789
1.51283949,0.458196991
1.59936656,0.434423782
1.68589363,0.41268276
1.7832474,0.39034576
1.89142789,0.367824076
1.99960837,0.347405191
2.10778885,0.328816829
2.16187909,0.32013676
2.29713177,0.300027047
2.3647581,0.290747531
2.50001077,0.273559218
2.63526345,0.257995835
2.70288978,0.250757347
2.87198946,0.234062664
3.04108914,0.219138857
3.21018882,0.205736625
3.3792885,0.193650653
3.53785119,0.183361361
3.64355964,0.17700204
3.7492681,0.171006612
3.90783078,0.162635999
4.01353924,0.157435008
4.17210192,0.150148602
4.35711816,0.142351881
4.48928018,0.137200737
4.6214422,0.13236573
4.75360422,0.127821473
4.88576624,0.123545122
5.01792825,0.119516065
5.21617128,0.113895875
5.36487009,0.109984393
5.53010568,0.105915635
5.69534127,0.102114687
5.94319465,0.0968663596
6.19104804,0.0921030857
6.43890142,0.0877678613
6.71611989,0.0833662983
7.05206851,0.078585417
7.27603425,0.0756946156
7.59460296,0.0719418358
7.87841183,0.0689144673
8.06761774,0.0670444151
8.41261774,0.0639081193
8.72420591,0.0613477606
9.0525,0.0588969781
9.225,0.0577011006
9.7425,0.0544503229
10.26,0.0516404673
10.7092466,0.0495050248
11.2884733,0.0471066191
11.8677,0.0450494071
12.3870761,0.0434526267
12.9632261,0.0419177362
13.365,0.0409772077
14.055,0.0395803336
14.5863,0.0386717311
15.1452,0.037854732
15.6407473,0.037238087
16.3922209,0.0364773799
16.9040736,0.0360692989
17.61195,0.0356396763
18.527925,0.0352989203
18.99195,0.0352137095
19.455975,0.035185186
20.1744056,0.0352507789
20.955,0.035472222
21.5346,0.0357388768
22.1142,0.0360949885
22.6938,0.0365439876
23.2527,0.037069371
23.7909,0.0376663032
24.405,0.0384646098
24.9018,0.0392093559
25.449791,0.0401430303
26.13,0.0414834776
26.51295,0.0423362888
27.20295,0.044074767
27.855,0.0459897952
28.5381,0.0483305512
29.05905,0.0503861328
29.319525,0.0515142647
29.685225,0.0532242191
30.240675,0.0561391557
30.720225,0.0590132262
31.04625,0.0611867183
31.305,0.0630545161
31.767397,0.0667491586
31.9996647,0.0687992204
32.2319323,0.0709953043
32.4642,0.0733514189
32.7471,0.0764603151
33.03,0.0798627807
33.306,0.0835014816
33.5889,0.0876018578
33.858,0.0918976249
34.134,0.0967602389
34.4238,0.102437057
34.686,0.108153699
34.962,0.114860958
35.238,0.12239008
35.376,0.126505817
35.514,0.130882284
35.652,0.135542174
35.79,0.140510716
35.928,0.145816028
36.135,0.154475172
36.273,0.160768233
36.411,0.167525742
36.549,0.174794956
36.756,0.186777094
36.894,0.195575496
37.032,0.205106853
37.17,0.215455572
37.239,0.220966192
37.377,0.232727293
37.515,0.24557688
37.653,0.259654558
37.77375,0.273107263
37.87725,0.285580701
37.98075,0.299019544
38.136,0.32121685
38.2395,0.337550953
38.29125,0.346230564
38.39475,0.364713739
38.4465,0.374561185
38.55,0.395589965
38.619,0.410685235
38.688,0.426725668
38.757,0.443792241
38.826,0.461974808
38.895,0.481373292
38.964,0.502099075
39.033,0.524276608
39.102,0.548045302
39.171,0.573561735
39.2745,0.615505315
39.3435,0.64621359
39.426802,0.686606583
39.516,0.734413597
39.585,0.775063003
39.6195,0.796718123
39.6885,0.842956451
39.723,0.867658812
39.792,0.92056308
39.8265,0.948914256
39.8955,1.00983426
39.9645,1.07702125
40.0335,1.15136766
40.1025,1.23393074
40.15425,1.3019943
40.18875,1.35063196
40.22325,1.4021175
40.25775,1.45667815
40.29225,1.51456427
40.32675,1.57605225
40.36125,1.64144782
40.39575,1.71108985
40.43025,1.78535481
40.46475,1.86466184
40.49925,1.9494787
40.53375,2.04032873
40.56825,2.13779891
40.62,2.29788391
40.6545,2.41498113
40.689,2.54140835
40.7235,2.67818512
40.758,2.82647416
40.7925,2.98760628
40.827,3.16311032
40.8615,3.35474963
40.896,3.56456661
40.9305,3.79493738
40.965,4.04863947
40.9995,4.32893595
41.034,4.63968101
41.0685,4.98545318
41.08575,5.17314413
41.111625,5.47536458
41.128875,5.6919186
41.146125,5.92167667
41.163375,6.16573493
41.180625,6.4253056
41.197875,6.70173211
41.215125,6.99650649
41.232375,7.31128954
41.25825,7.8250929
41.2755,8.19849305
41.301375,8.81105713
41.318625,9.25858111
41.3445,9.99693033
41.36175,10.5395678
41.370375,10.8276743
41.387625,11.4406339
41.404875,12.1073559
41.4135,12.4628634
41.43075,13.2226719
41.448,14.054364
41.456625,14.5000318
41.473875,15.4575682
41.4825,15.9723883
41.49975,17.0824689
41.508375,17.6815039
41.5239,18.8422897
41.535975,19.8261422
41.546325,20.7321796
41.5584,21.8700571
41.5722,23.2891601
41.586,24.8510914
41.5998,26.5756396
41.6136,28.4861342
41.6274,30.610231
41.6343,31.7624456
41.6412,32.9809089
41.6481,34.2707836
41.655,35.6377439
41.6619,37.0880367
41.6688,38.6285526
41.6757,40.2669066
41.68605,42.9265793
41.69295,44.848476
41.7033,47.9819819
41.7102,50.2564822
41.72055,53.9827995
41.72745,56.7012088
41.7378,61.1788869
41.7447,64.463875
41.74815,66.2059965
41.75505,69.9078153
41.7585,71.8756028
41.7654,76.067323
41.774025,81.8398356
41.777475,84.3329727
41.78265,88.290232
41.787825,92.5304845
41.793,97.0811097
41.798175,101.972845
41.80335,107.240284
41.808525,112.92247
41.8137,119.063585
41.818875,125.713778
41.822325,130.457932
41.825775,135.472413
41.83095,143.546676
41.8344,149.33165
41.83785,155.468335
41.843025,165.396215
41.846475,172.543862
41.849925,180.156935
41.8551,192.538993
41.85855,201.502584
41.862,211.093868
41.86545,221.37144
41.8689,232.400705
41.87235,244.254818
41.8758,257.015775
41.87925,270.775678
41.8827,285.638202
41.88615,301.720308
41.887875,310.259373
41.891325,328.424217
41.894775,348.173124
41.8990875,375.365773
41.9008125,387.105587
41.9034,405.730367
41.905125,418.87036
41.9077125,439.752841
41.9094375,454.511608
41.912025,478.009068
41.91375,494.64618
41.9163375,521.183432
41.9180625,540.007892
41.92065,570.091166
41.9232375,602.584989
41.925825,637.730815
41.9284125,675.797112
41.931,717.082186
41.9335875,761.917096
41.936175,810.668549
41.9387625,863.741601
41.94135,921.5819
41.9439375,984.677072
41.9456625,1029.91972
41.9473875,1077.89929
41.949975,1155.38297
41.9517,1210.97983
41.953425,1269.94685
41.9560125,1365.12717
41.9577375,1433.33634
41.9594625,1505.55476
41.9611875,1581.94133
41.963775,1704.62419
41.96619,1828.13
41.96895,1979.969
41.97102,2101.10908
41.97378,2271.50584
41.97654,2450.35701
41.98413,2957.28525
41.98689,3130.82248
41.98896,3250.0104
41.99034,3322.27641
41.99172,3387.55083
41.9931,3444.81167
41.99448,3493.11047
41.99586,3531.60856
41.99724,3559.61157
41.99862,3576.59975
42.0,3582.2515
42.00138,3576.45843
42.00276,3559.33051
42.00414,3531.19084
42.00552,3492.56061
42.0069,3444.13541
42.00828,3386.75499
42.00966,3321.36867
42.01104,3248.99906
42.01311,3129.67219
42.01587,2955.981
42.02346,2448.79895
42.0276,2183.50279
42.03036,2018.04989
42.03174,1939.32515
42.03381,1826.50682
42.0353625,1746.11155
42.0370875,1661.02608
42.039675,1541.63364
42.0422625,1431.77794
42.04485,1330.94274
42.0474375,1238.53243
42.0491625,1181.29571
42.05175,1101.52674
42.053475,1052.13633
42.0552,1005.56909
42.056925,961.654326
42.05865,920.228952
42.060375,881.138004
42.0621,844.234854
42.063825,809.38124
42.06555,776.447158
42.067275,745.310644
42.069,715.857487
42.070725,687.980894
42.07245,661.581122
42.074175,636.565091
42.077625,590.342965
42.081075,548.688629
42.084525,511.058809
42.08625,493.603215
42.0897,461.145822
42.091425,446.04872
42.094875,417.903027
42.0966,404.777061
42.10005,380.244272
42.101775,368.774381
42.105225,347.284968
42.10695,337.213808
42.1104,318.301516
42.112125,309.417898
42.115575,292.699167
42.1173,284.828924
42.12075,269.986643
42.122475,262.985409
42.125925,249.756074
42.1311,231.667142
42.13455,220.654785
42.139725,205.523629
42.143175,196.268317
42.14835,183.494711
42.1518,175.647715
42.15525,168.28534
42.1587,161.36913
42.16215,154.864305
42.1656,148.739357
42.16905,142.965691
42.1725,137.517314
42.17595,132.370562
42.1794,127.503853
42.1863,118.533413
42.1932,110.467531
42.2001,103.189744
42.207,96.6015682
42.21045,93.5394238
42.21735,87.8326252
42.22425,82.628429
42.23115,77.869939
42.2346,75.642214
42.2415,71.4622602
42.24495,69.5001194
42.25185,65.8091517
42.2553,64.0722458
42.2622,60.7972946
42.26565,59.2526134
42.276,54.9540934
42.28635,51.1045424
42.2967,47.6438268
42.30705,44.5215117
42.31395,42.6066783
42.3243,39.9570533
42.3312,38.3250586
42.34155,36.0576348
42.34845,34.6555824
42.3588,32.7004666
42.3657,31.4872354
42.3726,30.3400634
42.3795,29.2542549
42.3933,27.2499478
42.4002,26.3239391
42.414,24.6077187
42.4278,23.0535877
42.4416,21.6418057
42.453675,20.5099749
42.4692,19.1803796
42.483,18.1039062
42.50025,16.8808924
42.5175,15.7775226
42.526125,15.2658952
42.543375,14.314444
42.552,13.871678
42.56925,13.045529
42.577875,12.6598192
42.595125,11.9379325
42.60375,11.599896
42.621,10.9654638
42.63825,10.381635
42.646875,10.1070342
42.664125,9.58950609
42.69,8.88462422
42.70725,8.4569875
42.733125,7.87115059
42.750375,7.51375909
42.767625,7.18016005
42.784875,6.86829029
42.81075,6.43724628
42.828,6.17204249
42.84525,5.92289981
42.8625,5.68854873
42.87975,5.46784264
42.897,5.25974382
42.91425,5.06331131
42.9315,4.87769022
42.966,4.53583888
43.0005,4.22874788
43.035,3.95186525
43.05225,3.82353056
43.08675,3.58496553
43.12125,3.3681005
43.15575,3.17038479
43.173,3.07801206
43.2075,2.90501675
43.242,2.74625654
43.2765,2.60021364
43.29375,2.53154157
43.32825,2.40215121
43.3455,2.3411633
43.39725,2.1715834
43.449,2.01988361
43.50075,1.88363979
43.5525,1.76082488
43.587,1.68555518
43.63875,1.58146325
43.6905,1.48681131
43.74225,1.40049363
43.77675,1.34710461
43.8285,1.27263519
43.863,1.22641138
43.932,1.14130913
44.001,1.06489154
44.0355,1.02957577
44.1045,0.964105775
44.1735,0.904799183
44.2425,0.850908075
44.3115,0.801794546
44.3805,0.756911854
44.4495,0.715789228
44.5185,0.678019551
44.5875,0.643249306
44.6565,0.611170332
44.7255,0.581513019
44.7945,0.554040663
44.8635,0.528544767
44.9325,0.504841104
45.0015,0.4827664
45.0705,0.462175549
45.174,0.433792429
45.2775,0.408080087
45.381,0.384715746
45.50175,0.360059675
45.60525,0.340889542
45.70875,0.323320964
45.81225,0.307181935
45.91575,0.292322922
46.01925,0.278613433
46.12275,0.265939183
46.22625,0.254199737
46.347,0.241567655
46.416,0.234818562
46.554,0.222246888
46.623,0.216387706
46.761,0.205441001
46.83,0.200324293
46.968,0.190738735
47.037,0.186246386
47.175,0.177809623
47.382,0.166385683
47.52,0.159496032
47.727,0.150113119
47.865,0.144423482
48.072,0.136636197
48.21,0.131891833
48.417,0.125370303
48.555,0.121380885
48.762,0.115876651
48.9,0.112497706
49.038,0.109330269
49.2933672,0.103973712
49.5762,0.0987171596
49.866,0.0939677687
50.142,0.0899630355
50.5008,0.0854075865
50.832,0.0817643313
51.2529,0.0777944362
51.5358,0.075484741
51.8256,0.073380028
52.2603,0.0706591955
52.695,0.0683935976
53.04,0.0668775197
53.279775,0.065955546
53.759325,0.0644029071
54.104325,0.0635033853
54.42,0.062824634
54.680475,0.0623609879
55.201425,0.0616750736
55.63095,0.0613331081
56.145,0.0611681479
56.49,0.0611977747
57.1041,0.0615142259
57.678525,0.0621033274
58.1391,0.0627745518
58.9464,0.064374057
59.25,0.0651160397
59.7675,0.0665618889
60.205,0.0679674933
60.735,0.0699053521
61.0118,0.0710244925
61.6290425,0.0738010767
62.2174,0.076835891
62.8202,0.0803786904
63.13667,0.0824308122
63.73947,0.0867436671
64.3272,0.0915157606
64.93,0.0970748312
65.3821,0.101746928
65.8342,0.106907539
66.2863,0.112618193
66.5877,0.116766141
66.8891,0.121215114
67.3412,0.128514281
67.6426,0.133844132
67.944,0.13958761
68.3961,0.149071575
68.6975,0.156045007
68.9989,0.163605348
69.3003,0.171818551
69.6017,0.180760264
69.9031,0.190517585
70.2045,0.201191203
70.5059,0.212898016
70.769625,0.224095648
71.1087,0.23998002
71.447775,0.257786017
71.673825,0.270880222
71.899875,0.285081737
72.125925,0.300518688
72.351975,0.317338366
72.54035,0.332532884
72.7664,0.352348458
72.99245,0.374102497
73.2185,0.398056411
73.44455,0.424517329
73.6706,0.453848057
73.89665,0.486479647
74.04735,0.510318277
74.19805,0.5360284
74.2734,0.549647199
74.4241,0.578550905
74.5748,0.609883624
74.7255,0.643925879
74.8762,0.680999954
75.0269,0.721477584
75.1776,0.765789358
75.3283,0.814436266
75.40365,0.840564653
75.55435,0.896843623
75.6297,0.927180673
75.7804,0.992779258
75.85575,1.02828171
75.968775,1.08529713
76.0818,1.14729454
76.194825,1.21487285
76.30785,1.28872382
76.420875,1.36964992
76.5339,1.45858624
76.646925,1.55662778
76.75995,1.66506334
76.8353,1.74387017
76.91065,1.82848963
76.986,1.91950859
77.0517231,2.00464008
77.1154558,2.0927903
77.174375,2.17962438
77.21205,2.23804647
77.2874,2.36224885
77.325075,2.42830729
77.400425,2.56911037
77.4381,2.64419797
77.51345,2.80470107
77.5888,2.98042525
77.66415,3.17335982
77.701825,3.27699272
77.777175,3.50022668
77.852525,3.74727328
77.927875,4.02164666
77.96555,4.17035898
78.003225,4.327534
78.0409,4.4938266
78.078575,4.66995628
78.11625,4.85671493
78.153925,5.05497572
78.1916,5.26570338
78.229275,5.48996591
78.2857875,5.85436518
78.3234625,6.11794331
78.3611375,6.39982357
78.3988125,6.70174076
78.4364875,7.02564019
78.4741625,7.37370893
78.5118375,7.74841288
78.5495125,8.15254041
78.5871875,8.58925435
78.6248625,9.06215392
78.6437,9.31343536
78.681375,9.84850278
78.71905,10.4311883
78.756725,11.0673115
78.7944,11.7636081
78.8132375,12.1367199
78.8509125,12.938359
78.86975,13.3693568
78.8980062,14.0574596
78.9168437,14.5461869
78.9451,15.3285625
78.967705,16.0008869
78.9865425,16.5955727
79.0091475,17.3540562
79.03552,18.3066154
79.05059,18.8865921
79.08073,20.1324343
79.103335,21.1495557
79.133475,22.6301488
79.15608,23.8450405
79.18622,25.623116
79.20129,26.5876249
79.21636,27.6075853
79.23143,28.6873184
79.2465,29.8315734
79.26157,31.0455789
79.27664,32.3351021
79.29171,33.7065169
79.30678,35.1668809
79.32185,36.7240259
79.33692,38.3866609
79.35199,40.1644927
79.36706,42.068365
79.38213,44.1104219
79.3972,46.3042976
79.41227,48.665341
79.434875,52.5588639
79.449945,55.4187391
79.465015,58.5172726
79.480085,61.8815861
79.4913875,64.5977544
79.50269,67.4955729
79.51776,71.6705663
79.525295,73.9037748
79.540365,78.6925131
79.5479,81.2618818
79.56297,86.7894959
79.570505,89.7652422
79.5818075,94.5212929
79.5893425,97.902914
79.600645,103.322144
79.6119475,109.198622
79.62325,115.584536
79.6345525,122.539619
79.645855,130.132469
79.6571575,138.442146
79.66846,147.560107
79.6797625,157.592554
79.6872975,164.84922
79.6948325,172.608668
79.706135,185.293619
79.71367,194.52516
79.721205,204.447107
79.7325075,220.776955
79.7400425,232.744021
79.7475775,245.681461
79.7551125,259.693346
79.7626475,274.89748
79.7701825,291.427512
79.7777175,309.435401
79.7852525,329.094312
79.7927875,350.601999
79.8003225,374.184765
79.80409,386.83395
79.811625,414.027655
79.81916,444.019303
79.8229275,460.177209
79.8285788,486.008997
79.8323463,504.374793
79.8379975,533.792724
79.841765,554.747892
79.8474162,588.37716
79.8511838,612.37664
79.856835,650.961853
79.8624862,692.934706
79.8681375,738.645379
79.8737888,788.478503
79.87944,842.85398
79.8850913,902.226401
79.8907425,967.082282
79.8963938,1037.93408
79.902045,1115.3095
79.9076963,1199.73423
79.9114637,1260.18147
79.9152313,1324.11697
79.9189988,1391.65401
79.92465,1499.8893
79.927664,1561.05355
79.933692,1690.48677
79.93972,1828.94612
79.945748,1975.32572
79.966846,2512.36581
79.971367,2620.24965
79.975888,2719.93743
79.978902,2780.37031
79.981916,2834.94727
79.98493,2882.81346
79.987944,2923.17572
79.990958,2955.33294
79.993972,2978.70496
79.996986,2992.85784
80.0,2997.52356
80.004521,2986.58785
80.007535,2967.54258
80.010549,2939.48414
80.013563,2902.9254
80.016577,2858.51292
80.019591,2806.99958
80.022605,2749.21461
80.027126,2652.69787
80.033154,2510.29862
80.054252,1972.94907
80.06028,1826.58036
80.063294,1756.29006
80.069322,1622.2961
80.073843,1527.91343
80.0772338,1460.6567
80.0810012,1389.47718
80.0847687,1321.98666
