energy [eV],cross section [b]
1e-05,2410.85634
1.05683081e-05,2345.1317
1.11366161e-05,2284.5043
1.22732322e-05,2176.13785
1.29707299e-05,2116.81057
1.36682276e-05,2062.08437
1.50632229e-05,1964.26569
1.63473056e-05,1885.52811
1.76313882e-05,1815.5565
1.90127715e-05,1748.34443
2.00634278e-05,1701.94147
2.16394122e-05,1638.78008
2.3334816e-05,1578.10956
2.46243109e-05,1536.22279
2.65585532e-05,1479.20852
2.94306751e-05,1405.1562
3.25959291e-05,1335.16655
3.6120951e-05,1268.3207
4.00057408e-05,1205.14192
4.31401088e-05,1160.51623
4.67160283e-05,1115.19369
5.14839211e-05,1062.27269
5.44097938e-05,1033.29962
5.73356665e-05,1006.5732
6.31874119e-05,958.801003
6.85738992e-05,920.346631
7.39603865e-05,886.172666
8.19586854e-05,841.785171
9.07733e-05,799.831627
0.000100589798,759.761253
0.000111408179,721.887709
0.000120136782,695.135189
0.00013009502,667.964033
0.000143372671,636.236269
0.000155594647,610.695912
0.000167816624,587.99764
0.000180964714,566.193193
0.000190964924,551.13863
0.00020596524,530.645867
0.00021596545,518.186007
0.000228238941,504.026744
0.000240512432,490.964766
0.000265059413,467.615354
0.000280122953,454.83095
0.000295186493,443.037108
0.000325313573,421.954134
0.000353045321,404.981188
0.00038077707,389.895706
0.000421955449,370.298744
0.000444645995,360.681774
0.000490027087,343.489206
0.000531800039,329.647181
0.00057357299,317.343542
0.0006356009,301.358922
0.000703959451,286.24627
0.000759113236,275.568295
0.000801062254,268.194412
0.000863985782,258.154769
0.000957419806,245.109761
0.00100890481,238.706748
0.00111187482,227.257405
0.00120665793,218.036784
0.00130144105,209.83877
0.00140340629,201.960172
0.00151973581,193.95427
0.00159728882,189.10769
0.00172243313,181.985023
0.00181761575,177.06488
0.00196038966,170.363957
0.0021723921,161.653143
0.00240603176,153.411481
0.00266622728,145.530894
0.00295297865,138.073213
0.0031843385,132.799309
0.00344829097,127.437124
0.00371224344,122.651874
0.00401619759,117.730799
0.00423216758,114.557662
0.00444813758,111.615815
0.00485741092,106.582552
0.00524401761,102.373092
0.00558084425,99.0633123
0.00588702775,96.3010719
0.00621234817,93.5896416
0.00686298902,88.748476
0.00722528588,86.336479
0.00762455919,83.8767811
0.0084231058,79.4841702
0.00911277985,76.1568752
0.00984783596,72.9959074
0.0105828921,70.1641911
0.0114850435,67.0605473
0.0123871949,64.2960008
0.0133577063,61.6345052
0.0140958606,59.7934807
0.0148340149,58.0889989
0.0159412462,55.7536392
0.0168472001,54.0134835
0.017753154,52.4058992
0.0186591079,50.9148365
0.0195650617,49.5268599
0.0212329091,47.2044046
0.0223448073,45.8007299
0.0234567055,44.4968375
0.0253,42.5257404
0.0273856443,40.5381603
0.0294712887,38.764483
0.0311461658,37.4708955
0.0336584814,35.7151624
0.036170797,34.1469768
0.0380857659,33.0586309
0.0396626392,32.2232466
0.0428163859,30.6961083
0.0469161639,28.9524172
0.0494390685,27.9928554
0.0519619732,27.1071563
0.0560330877,25.8126835
0.060677717,24.5077113
0.0653223462,23.3546323
0.0707342109,22.1693372
0.0764029986,21.0788485
0.0820717863,20.1163616
0.0867359921,19.4054851
0.0914001978,18.7576232
0.0960644036,18.1649933
0.102055633,17.4744262
0.108443632,16.8138872
0.113504609,16.3387511
0.118565585,15.9011026
0.123626561,15.4969613
0.129828831,15.0423867
0.139955763,14.383637
0.15172975,13.7266603
0.164442097,13.124253
0.177450496,12.6011068
0.189998082,12.1698043
0.201327991,11.832071
0.214940948,11.4810641
0.228553905,11.1808553
0.242138547,10.9243387
0.258462769,10.6645769
0.273567198,10.4646438
0.291111214,10.2742179
0.307435437,10.1320784
0.323759659,10.0195695
0.344275843,9.91530913
0.372732327,9.8308255
0.39721866,9.80771042
0.413542883,9.8156176
0.446191328,9.88401929
0.46251555,9.9437368
0.495163995,10.1141375
0.518590377,10.2797947
0.535974552,10.4278723
0.560460885,10.6766493
0.576785108,10.8720394
0.59310933,11.0950114
0.612698397,11.4062458
0.632287464,11.7781347
0.645346842,12.0704512
0.65840622,12.4102794
0.671465598,12.8141589
0.681260132,13.1745612
0.691054665,13.60314
0.700849199,14.12686
0.70901131,14.6664372
0.713908577,15.0517911
0.717173421,15.3413979
0.720438266,15.662398
0.72370311,16.0204152
0.726967955,16.4223955
0.730232799,16.8769876
0.733497644,17.395049
0.736762488,17.9903294
0.740027333,18.6803959
0.743292177,19.4878951
0.74574081,20.1879834
0.748189444,20.9861775
0.750638077,21.9017499
0.753086711,22.9584732
0.755535344,24.185712
0.757167766,25.1161689
0.757983977,25.6196955
0.7596164,26.7121235
0.760432611,27.3048927
0.761248822,27.931484
0.762881244,29.2952477
0.763697455,30.0372882
0.765329877,31.6547188
0.766146089,32.5356107
0.767778511,34.4559322
0.768594722,35.5010421
0.770227144,37.7746509
0.771859566,40.3079396
0.773328746,42.819597
0.774634684,45.2364347
0.775940622,47.8174208
0.777899529,51.9469251
0.781817342,60.5039178
0.78312328,63.1331042
0.784102733,64.9117762
0.785408671,66.9213931
0.78606164,67.7358257
0.786714609,68.404578
0.787694062,69.1095785
0.788347031,69.3683999
0.788934703,69.4518266
0.789979453,69.2477715
0.790632422,68.8952085
0.791285391,68.3770667
0.79193836,67.7029588
0.792591329,66.884944
0.793897267,64.874571
0.79487672,63.1017096
0.796182658,60.4894536
0.800100471,52.0444849
0.801406409,49.3160244
0.802712347,46.7217761
0.804018285,44.2886593
0.805324222,42.0301806
0.806956645,39.4575481
0.808589067,37.1558156
0.809405278,36.1014876
0.8110377,34.1727774
0.811853911,33.2926536
0.813486334,31.6862128
0.814302545,30.9541278
0.815934967,29.6184359
0.816751178,29.0096429
0.8183836,27.8981427
0.819199812,27.3910191
0.820832234,26.4639547
0.823280867,25.2647789
0.825729501,24.2588297
0.828178134,23.4122296
0.830626767,22.697604
0.833075401,22.0928321
0.836340245,21.4268904
0.83960509,20.8912956
0.842869934,20.4604672
0.846134779,20.1146999
0.849399623,19.8386808
0.852664468,19.6204051
0.855929312,19.4503813
0.860826579,19.269684
0.865723846,19.1612748
0.870621112,19.110824
0.880415646,19.1439357
0.886945335,19.2431922
0.893475024,19.3911805
0.906534402,19.8054145
0.913064091,20.0624611
0.926123469,20.6625967
0.932653158,21.0025952
0.945712536,21.7587587
0.952242225,22.1746356
0.965301603,23.0835106
0.971831292,23.5778759
0.98489067,24.6515468
0.997950048,25.8477316
1.01100943,27.1806013
1.02162017,28.3764933
1.03386334,29.898674
1.0461065,31.5944013
1.05759378,33.3670715
1.06837635,35.2155074
1.0804381,37.529181
1.08912349,39.3809456
1.09346619,40.3724695
1.10215159,42.5016703
1.11083698,44.8487673
1.11517968,46.1138747
1.12386508,48.8502667
1.13255048,51.8977793
1.13689318,53.553898
1.14557857,57.1681972
1.14992127,59.1437888
1.15643532,62.3460644
1.16294937,65.8706087
1.16946341,69.7642521
1.17597746,74.0828095
1.18067399,77.497201
1.18683421,82.4127022
1.19334825,88.2310889
1.1998623,94.7982428
1.20203365,97.1768086
1.20637635,102.253104
1.2085477,104.964052
1.2128904,110.768592
1.21506175,113.878816
1.21940444,120.562019
1.22157579,124.156148
1.22591849,131.909371
1.22808984,136.095667
1.23243254,145.165167
1.23460389,150.083799
1.23894659,160.790491
1.24220361,169.674498
1.24437496,176.054506
1.24654631,182.83645
1.24980333,193.839711
1.25197468,201.786232
1.25414603,210.27329
1.25740306,224.128337
1.2595744,234.198397
1.26174575,245.011128
1.2639171,256.640572
1.26608845,269.169953
1.2682598,282.693024
1.27043115,297.315626
1.2726025,313.157519
1.27477385,330.354519
1.2769452,349.060986
1.27911655,369.452753
1.2812879,391.730538
1.28345925,416.123941
1.2856306,442.896098
1.28780194,472.349108
1.28997329,504.830297
1.29105897,522.329115
1.29323032,560.12069
1.29431599,580.536792
1.2959445,613.252438
1.29703018,636.566248
1.29865869,673.995903
1.29974437,700.717801
1.30137288,743.695215
1.30245855,774.429239
1.30408706,823.936961
1.30571558,877.901108
1.30734409,936.768199
1.3089726,1001.01769
1.31060111,1071.15699
1.31222962,1147.71231
1.3133153,1202.57573
1.31440097,1260.67986
1.31602948,1354.2268
1.31711516,1421.03743
1.31820083,1491.52363
1.32015505,1627.84138
1.32145786,1725.45221
1.32276067,1828.26311
1.32406348,1935.90881
1.32536629,2047.78961
1.33144606,2590.54923
1.33318314,2733.80391
1.33448595,2830.66048
1.33535449,2888.51079
1.33622303,2939.95204
1.33709157,2984.15007
1.33796011,3020.34955
1.33926292,3058.27432
1.34013146,3071.95491
1.34091315,3076.0505
1.34186854,3070.38827
1.34273708,3055.15997
1.34360562,3030.61805
1.34447416,2997.21223
1.3453427,2955.53929
1.34621124,2906.31721
1.34707978,2850.35583
1.34794832,2788.52596
1.34925113,2686.7512
1.35055394,2576.82922
1.35576517,2108.30682
1.35837079,1883.64302
1.36010787,1743.71356
1.36184495,1613.05473
1.36379917,1477.69233
1.36542768,1374.2799
1.36705619,1279.1247
1.3686847,1191.81285
1.37031321,1111.84876
1.37139889,1062.3584
1.37248456,1015.73543
1.37357024,971.820069
1.37519875,910.683022
1.37628442,872.863551
1.3773701,837.227983
1.37845577,803.640852
1.38008429,756.822154
1.38116996,727.810266
1.38225563,700.428889
1.38334131,674.574403
1.38442698,650.14982
1.38551266,627.064488
1.38768401,584.578738
1.38985536,546.506361
1.39202671,512.317022
1.39419806,481.550745
1.39528373,467.324447
1.39745508,440.961618
1.39962643,417.121252
1.40179778,395.523027
1.40288345,385.487187
1.4050548,366.804574
1.40722615,349.811227
1.4093975,334.333252
1.41048317,327.114155
1.41265452,313.629441
1.41482587,301.313204
1.4180829,284.791631
1.42133992,270.333655
1.42459694,257.673017
1.42785397,246.587231
1.43111099,236.889729
1.43436802,228.423577
1.43653936,223.397324
1.43871071,218.825102
1.44088206,214.67651
1.44522476,207.544322
1.44956746,201.815967
1.45391016,197.344069
1.45608151,195.541766
1.46042421,192.743812
1.4647669,190.95701
1.4691096,190.121309
1.47128095,190.04618
1.47562365,190.562176
1.47996635,191.9516
1.48430905,194.208649
1.4864804,195.66438
1.49057587,199.013422
1.49432278,202.785159
1.49819909,207.426687
1.50230615,213.206414
1.50538646,218.156185
1.50846676,223.664887
1.51257382,231.938488
1.51668089,241.361626
1.52078796,252.048858
1.52489503,264.137423
1.5290021,277.791347
1.53310916,293.206618
1.53721623,310.617706
1.5413233,330.305822
1.5444036,346.76729
1.54645713,358.640125
1.54851067,371.296464
1.5505642,384.798174
1.55261774,399.213579
1.55467127,414.618253
1.5567248,431.095918
1.55877834,448.739479
1.56083187,467.652205
1.56288541,487.9491
1.56493894,509.758465
1.56699247,533.223715
1.56904601,558.505481
1.57109954,585.784034
1.57315308,615.262118
1.57520661,647.168231
1.57623338,664.111177
1.57828691,700.15369
1.58034045,739.334896
1.58136721,760.211089
1.58342075,804.777718
1.58547428,853.460168
1.58650105,879.495391
1.58855458,935.292442
1.59060812,996.566945
1.59163488,1029.46969
1.59368842,1100.28359
1.59471518,1138.40673
1.59676872,1220.67464
1.59779548,1265.08131
1.59933564,1336.18818
1.60087579,1413.17259
1.60241594,1496.63105
1.60395609,1587.22567
1.60549624,1685.69013
1.60703639,1792.83534
1.60806315,1869.52568
1.60908992,1950.75498
1.61063007,2081.77667
1.61165684,2175.71557
1.61268361,2275.32682
1.61422376,2436.16854
1.61525052,2551.55873
1.61627729,2673.92622
1.61781744,2871.40444
1.61884421,3012.89366
1.61987098,3162.67186
1.62089774,3321.06336
1.62243789,3575.38408
1.62387537,3831.32338
1.62551819,4145.85255
1.62675031,4396.68688
1.62798243,4659.3811
1.63003597,5119.27857
1.63455374,6166.16686
1.63619657,6523.73615
1.63742869,6768.91241
1.6382501,6917.32807
1.63907152,7051.1559
1.63989293,7168.28466
1.64071435,7266.75775
1.64153576,7344.84826
1.64235717,7401.13034
1.64317859,7434.54159
1.64395893,7444.50073
1.64482141,7430.59241
1.64564283,7393.26901
1.64646424,7333.14763
1.64728565,7251.3242
1.64810707,7149.25481
1.64892848,7028.69258
1.6497499,6891.61579
1.65057131,6740.1525
1.65180343,6490.80721
1.65344626,6128.45741
1.65796403,5072.78248
1.65960686,4701.01062
1.66124969,4347.07415
1.66289251,4014.62177
1.66412463,3780.54414
1.66556211,3524.41042
1.66710226,3270.09511
1.66812902,3111.80586
1.66915579,2962.19386
1.67018256,2820.92369
1.67120933,2687.6288
1.67223609,2561.92452
1.67326286,2443.41836
1.67428963,2331.71777
1.67582978,2176.08432
1.67685654,2079.72941
1.67788331,1988.87801
1.67942346,1862.1818
1.68045023,1783.64092
1.681477,1709.49041
1.68301715,1605.89124
1.6845573,1510.67715
1.68609745,1423.06015
1.6876376,1342.32858
1.68917775,1267.84111
1.69123128,1177.24843
1.69225805,1135.34796
1.69431158,1057.65958
1.69533835,1021.62758
1.69739188,954.638917
1.69841865,923.48474
1.70047218,865.411872
1.70252572,812.460806
1.70355249,787.728134
1.70560602,741.432713
1.70765955,698.989205
1.70868632,679.084661
1.71073985,641.68293
1.71279339,607.220339
1.71382016,590.998899
1.71587369,560.410189
1.71792722,532.095401
1.71998076,505.840296
1.72203429,481.454594
1.72408783,458.768931
1.72614136,437.632233
1.72819489,417.909463
1.73024843,399.479667
1.73230196,382.234291
1.7343555,366.07572
1.73640903,350.916009
1.73846256,336.675775
1.7405161,323.283238
1.7435964,304.643299
1.74564993,293.098539
1.74770347,282.198864
1.749757,271.897671
1.75181053,262.152441
1.75489084,248.492935
1.7589979,231.890208
1.76310497,216.909847
1.76515851,209.963379
1.76926557,197.045819
1.77131911,191.034989
1.7739466,183.74236
1.77747971,174.585968
1.78261354,162.472454
1.78774738,151.598758
1.79185445,143.682258
1.79390798,139.959722
1.79801505,132.94587
1.80006858,129.639991
1.80417565,123.397268
1.81033625,114.868314
1.81444332,109.678925
1.82060392,102.550921
1.82471099,98.1915807
1.83087159,92.175021
1.83497866,88.4784965
1.84113926,83.3548426
1.84524633,80.1939331
1.8493534,77.2184543
1.85346047,74.4142797
1.85756754,71.768604
1.8616746,69.2697973
1.86988874,64.6714055
1.87810288,60.5451357
1.88631701,56.8291637
1.89453115,53.4714992
1.90274528,50.4281718
1.91095942,47.6617951
1.91712002,45.7493659
1.92328062,43.9628857
1.93149476,41.7587978
1.94176243,39.2591959
1.94689626,38.1051893
1.95716394,35.9686552
1.96229777,34.9790434
1.97256544,33.141469
1.97769927,32.2879585
1.98796694,30.6991645
2.0019628,28.7612284
2.00832653,27.957858
2.01712839,26.9190908
2.03033118,25.5044172
2.04353397,24.2437681
2.05233583,23.4802674
2.06113769,22.7731433
2.07434048,21.8098973
2.08754327,20.9539709
2.10074606,20.1964834
2.11306867,19.5721617
2.12715164,18.9509409
2.13771387,18.5473226
2.15179685,18.0909311
2.16587983,17.7291535
2.17538995,17.5406522
2.18700429,17.3760273
2.19756652,17.2952761
2.20460801,17.2823998
2.2116495,17.3064641
2.21869099,17.3722259
2.22573247,17.4858436
2.23629471,17.764207
2.24333619,18.0382896
2.24685694,18.2075213
2.25389843,18.6229813
2.25741917,18.8755755
2.26270029,19.321746
2.26622103,19.6713518
2.27150215,20.2896205
2.27502289,20.7758137
2.28030401,21.6410499
2.28382475,22.3271232
2.28734549,23.1193896
2.28910586,23.5615633
2.29262661,24.5530932
2.29614735,25.7121714
2.29790772,26.3655756
2.2996681,27.0752688
2.30142847,27.8474164
2.30318884,28.68902
2.30494921,29.6080484
2.30670958,30.613591
2.30846996,31.7160372
2.31023033,32.9272859
2.3119907,34.2609902
2.31375107,35.7328411
2.31551144,37.360894
2.31727182,39.1659432
2.31903219,41.1719422
2.32079256,43.4064679
2.32255293,45.9012131
2.3243133,48.6924823
2.32607368,51.821637
2.32783405,55.3353993
2.32871423,57.2525872
2.32959442,59.2858638
2.33047461,61.4424953
2.33135479,63.7299724
2.33223498,66.1559356
2.33311516,68.7280737
2.33399535,71.4539855
2.33487554,74.3410011
2.33575572,77.395949
2.337076,82.3061387
2.33839628,87.6224828
2.33980458,93.7468169
2.34121288,100.327834
2.34262117,107.327599
2.34402947,114.672261
2.34790229,135.473355
2.34931059,142.586512
2.35036681,147.468245
2.35177511,153.095633
2.35247926,155.435189
2.3531834,157.405817
2.35388755,158.973185
2.3545917,160.10891
2.35529585,160.791796
2.35596479,161.009118
2.35670415,160.755648
2.3574083,160.037035
2.35811245,158.866408
2.3588166,157.265346
2.35952074,155.262575
2.36022489,152.89273
2.36163319,147.211258
2.36268941,142.295283
2.36409771,135.145389
2.36797053,114.293574
2.36937883,106.946227
2.37078712,99.9504177
2.37219542,93.3788732
2.37360372,87.2684971
2.374924,81.9685032
2.37624428,77.0771653
2.37712446,74.0359038
2.37844474,69.7881075
2.37932493,67.1553153
2.38020511,64.6729773
2.3810853,62.333345
2.38240558,59.0745382
2.38328577,57.0580226
2.38504614,53.3666994
2.38680651,50.0857009
2.3876867,48.5833398
2.38944707,45.8264371
2.39120744,43.3659438
2.39296781,41.1654706
2.39472818,39.1932727
2.39648856,37.4217453
2.39824893,35.8269244
2.4000093,34.3880177
2.40176967,33.0869805
2.40353004,31.9081393
2.40529042,30.8378625
2.40705079,29.8642756
2.40881116,28.9770154
2.41057153,28.1670199
2.4123319,27.4263478
2.41497246,26.4302981
2.41761302,25.5546029
2.41937339,25.0293021
2.42289414,24.1002488
2.42641488,23.3101827
2.42817525,22.9599845
2.43169599,22.3372794
2.43697711,21.5684211
2.44225823,20.9608873
2.44753934,20.4830777
2.45282046,20.1112973
2.45810157,19.8275668
2.46514306,19.5628741
2.47218455,19.4062085
2.47922604,19.3401224
2.48626753,19.352065
2.49330901,19.4330383
2.5003505,19.5766878
2.51091273,19.9006441
2.51795422,20.1854208
2.52499571,20.5240435
2.5320372,20.9166469
2.54259943,21.6092873
2.54964092,22.1432723
2.55668241,22.7385798
2.56372389,23.3992026
2.57076538,24.1300386
2.57780687,24.9369725
2.58484836,25.8269884
2.593,26.9719773
2.59905884,27.9112175
2.60367766,28.6827442
2.61291531,30.3859569
2.61984354,31.8206307
2.62677178,33.4092772
2.63370001,35.172513
2.64062825,37.1347555
2.64755648,39.3250616
2.65448472,41.7781933
2.66141295,44.5359838
2.66526842,46.2208758
2.6699066,48.4078089
2.67296001,49.9518943
2.67757883,52.4614464
2.67988825,53.8014058
2.68450707,56.6690384
2.68681648,58.2044568
2.6914353,61.5001825
2.69605413,65.1288513
2.70067295,69.1360996
2.70298236,71.2981082
2.70760119,75.9768626
2.71222001,81.1874198
2.71683883,87.0122064
2.71914824,90.1850753
2.72145765,93.5500457
2.72376707,97.1226871
2.72607648,100.920153
2.72838589,104.961376
2.7306953,109.267286
2.73300471,113.861065
2.73531412,118.768434
2.73762354,124.01799
2.73993295,129.641583
2.74224236,135.674762
2.74455177,142.157284
2.74686118,149.133702
2.74917059,156.654057
2.75148001,164.774666
2.75263471,169.079608
2.75494412,178.222258
2.75725353,188.139915
2.75840824,193.416019
2.76071765,204.662369
2.76302706,216.923269
2.76418177,223.471022
2.76649118,237.483919
2.76880059,252.844262
2.7699553,261.081347
2.77226471,278.785813
2.77341942,288.304891
2.77572883,308.820369
2.77688353,319.880604
2.77919294,343.783578
2.780925,363.427297
2.78265706,384.708307
2.78438912,407.793955
2.78612118,432.869816
2.78785324,460.141229
2.78900794,479.652859
2.79016265,500.313052
2.79189471,533.626662
2.79304941,557.505166
2.79420412,582.821401
2.79593618,623.69424
2.79709088,653.016031
2.79824559,684.112649
2.7994003,717.08538
2.800555,752.035293
2.80170971,789.061159
2.80286441,828.256748
2.80401912,869.707382
2.80575118,936.265443
2.80736777,1003.25187
2.8092153,1085.58103
2.81060094,1151.24544
2.81198659,1220.02298
2.814296,1340.45606
2.81937671,1614.77119
2.82122424,1708.55027
2.82260988,1772.89702
2.82353365,1811.87566
2.82445741,1847.04895
2.82538118,1877.86403
2.82630494,1903.80823
2.82722871,1924.42872
2.82815247,1939.35122
2.82907624,1948.29632
2.82995381,1951.09982
2.83092376,1947.68283
2.83184753,1938.13042
2.83277129,1922.61277
2.83369506,1901.41486
2.83461882,1874.91605
2.83554259,1843.57355
2.83646635,1807.90368
2.83739012,1768.46214
2.83877576,1703.4884
2.84062329,1609.00384
2.845704,1333.48223
2.84755153,1236.39612
2.84939906,1143.94781
2.85032282,1099.78246
2.85217035,1015.93589
2.85309412,976.327258
2.85482617,906.257615
2.85598088,862.549189
2.85713559,821.181651
2.85829029,782.080326
2.86002235,727.484395
2.86175441,677.463995
2.86348647,631.676046
2.86464117,603.331963
2.86579588,576.616258
2.86752794,539.385646
2.86926,505.292738
2.87099206,474.049555
2.87272411,445.391048
2.87445617,419.075089
2.87618823,394.881685
2.87734294,379.832809
2.879075,358.744202
2.88080706,339.289567
2.88311647,315.633231
2.88542588,294.298952
2.88658058,284.415342
2.88889,266.061092
2.89119941,249.409187
2.89235411,241.660306
2.89466352,227.208142
2.89697294,214.021768
2.89928235,201.964352
