energy [eV],cross section [b]
1e-05,752.064727
1.0940175e-05,719.0235
1.15669583e-05,699.271186
1.21937416e-05,681.062116
1.32910595e-05,652.342111
1.44669489e-05,625.268775
1.56428382e-05,601.308629
1.71135387e-05,574.890723
1.80940057e-05,559.097884
1.95647062e-05,537.673389
2.07909894e-05,521.576035
2.26304141e-05,499.929719
2.38566973e-05,486.911513
2.52367032e-05,473.411597
2.75372962e-05,453.204853
2.90710248e-05,441.08778
3.06047535e-05,429.893375
3.34821358e-05,411.006429
3.54003907e-05,399.715659
3.73186456e-05,389.307034
4.067696e-05,372.890174
4.42757404e-05,357.414579
4.78745208e-05,343.718537
5.08752159e-05,333.427978
5.3875911e-05,324.009583
5.83769537e-05,311.267981
6.36303105e-05,298.141983
6.73833199e-05,289.720316
7.11363292e-05,281.974232
7.48893385e-05,274.817982
8.19302467e-05,262.744119
8.66241855e-05,255.526266
9.13181243e-05,248.872341
9.95358655e-05,238.377531
0.000108342023,228.484443
0.000117148181,219.72897
0.00012816216,210.075388
0.000135504812,204.304398
0.000146518791,196.475498
0.000155702344,190.593232
0.000169477674,182.683274
0.000183253004,175.68289
0.000194738997,170.423132
0.00020622499,165.609158
0.000217710982,161.181358
0.000229196975,157.090719
0.000243562659,152.387589
0.000265111185,146.06323
0.000279476869,142.259728
0.000295643387,138.315486
0.000322594415,132.411723
0.000349545444,127.204656
0.000381001127,121.840498
0.000403473134,118.398843
0.000437181145,113.742827
0.000476523187,108.946345
0.000504629225,105.868913
0.000532735264,103.038351
0.000560841303,100.423325
0.0005959939,97.4167513
0.000631146497,94.6649962
0.000666299094,92.1339856
0.000701451691,89.7957014
0.000767400424,85.8506007
0.000811366245,83.4921871
0.000855332067,81.3180356
0.000932303617,77.8888846
0.00101478658,74.6563441
0.00109726953,71.7955161
0.00120043207,68.6412322
0.00126920709,66.7555753
0.00137236963,64.197501
0.00145838747,62.2754842
0.00158741423,59.6909231
0.00167343206,58.1365544
0.00177023281,56.5246692
0.00187781647,54.8815703
0.00198540013,53.3739024
0.00209298378,51.9840279
0.00221405377,50.5427235
0.00241588824,48.3853709
0.00261772271,46.4826037
0.00285329224,44.5224315
0.0031057293,42.6746451
0.00335816636,41.0393364
0.00356865063,39.8106419
0.00388437702,38.1583997
0.00420010342,36.6961492
0.00446335889,35.5974824
0.00472661437,34.5919311
0.00512149758,33.2315779
0.00541775388,32.3101876
0.00574701101,31.3709543
0.00607626814,30.509136
0.00640552527,29.7146507
0.00698196012,28.4615583
0.0073937664,27.6575706
0.00780557268,26.9180778
0.00847490476,25.8332035
0.00924748217,24.7305092
0.0100200596,23.7579404
0.0109217673,22.7560285
0.0115659492,22.1131985
0.012532222,21.2435493
0.0132571564,20.6545203
0.0140628433,20.054084
0.0152713737,19.2441614
0.0160770606,18.7557231
0.0170847439,18.1941499
0.0180924272,17.6801708
0.0191001105,17.2074217
0.0207379554,16.5138728
0.0226284398,15.80893
0.0238887628,15.3862058
0.0251490858,14.9956692
0.0276078613,14.3122466
0.0299157225,13.7490235
0.0324400481,13.2031642
0.034411551,12.8193036
0.0363830538,12.4670807
0.039340308,11.9892537
0.0418060929,11.6302344
0.0455047702,11.1474529
0.0479705551,10.8571034
0.0507454425,10.556008
0.0553714275,10.1053226
0.0584554175,9.83506422
0.0615394075,9.58538297
0.0673251886,9.16412167
0.071182376,8.91228508
0.0750395634,8.68012213
0.0817923927,8.31394134
0.0890287462,7.96874942
0.0962650997,7.66324575
0.102298836,7.43370078
0.108332571,7.22360735
0.117383175,6.93937864
0.127946517,6.64656777
0.135492991,6.45869533
0.143039464,6.28589059
0.150585938,6.12624115
0.164743651,5.8568768
0.174182127,5.69584368
0.183620602,5.54738844
0.194242253,5.39343596
0.20604708,5.23649776
0.223754321,5.02479795
0.242941375,4.82205416
0.265088056,4.61596962
0.287234738,4.43419451
0.303850015,4.31106911
0.322316114,4.18555381
0.350015264,4.01623797
0.380029262,3.85408078
0.40312506,3.74182597
0.426220857,3.6388176
0.449316654,3.54385165
0.475307663,3.44536552
0.504193884,3.34496523
0.547523216,3.20952424
0.576409437,3.12783678
0.612537819,3.03391054
0.666730392,2.90759232
0.720922964,2.79578414
0.788702337,2.67248801
0.833888586,2.59876994
0.901667958,2.49875013
0.958183002,2.42358812
1.04295557,2.3224989
1.12772813,2.2330149
1.19841225,2.16576765
1.26909637,2.10420894
1.33978048,2.0475784
1.4104646,1.9952508
1.49887017,1.93507628
1.63147852,1.85413669
1.71988409,1.80544573
1.81937188,1.75494131
1.98522692,1.67932143
2.15108195,1.61259803
2.34465836,1.54383141
2.48294976,1.49969257
2.69038686,1.43995468
2.93249546,1.3783811
3.10545835,1.33885543
3.3649027,1.28535584
3.55954765,1.24909991
3.77587465,1.21212385
3.99220165,1.17817813
4.20852865,1.14686863
4.45197368,1.1143831
4.85781827,1.06572214
5.12838133,1.03651936
5.39894439,1.00952348
5.90653963,0.963936691
6.41413487,0.923828594
6.96415041,0.885373846
7.38738783,0.858726305
8.02224396,0.822740647
8.71015572,0.788230056
9.23950441,0.764310447
9.76885309,0.742338102
10.5628761,0.712490113
11.2249396,0.690030473
11.887003,0.669447183
12.5490665,0.650490416
13.2111299,0.632954669
14.4532073,0.603315794
15.2812589,0.585563059
16.1093104,0.569172699
17.5589914,0.543269435
19.1124741,0.518788189
20.6659568,0.497066056
21.9612645,0.48070761
23.9042261,0.458655504
25.8471876,0.439082891
27.4672462,0.424339649
29.0873048,0.410816216
30.7073634,0.39835129
32.327422,0.386812101
34.3536508,0.373516183
36.3798797,0.361318902
38.4061086,0.350075371
41.6994532,0.333536138
45.5008004,0.316669253
48.0350318,0.306527137
50.5692633,0.297138502
53.7388603,0.286321674
58.4932559,0.271738459
63.2476514,0.258796822
67.2119087,0.249052086
71.176166,0.240118329
75.1404232,0.231889519
79.1046805,0.224278224
83.3568403,0.216717882
87.609,0.209709149
93.273139,0.201122499
102.03789,0.189266813
111.339725,0.178249883
120.64156,0.168540778
131.498125,0.158554549
139.254078,0.152160302
150.888007,0.143532363
159.616221,0.137707219
169.316694,0.131788525
179.017168,0.126377897
188.717641,0.121409919
199.634134,0.116281239
211.766646,0.11108081
229.965413,0.104116718
249.381902,0.0976057756
256.66588,0.0953716324
271.233834,0.0912002493
293.085767,0.0855905346
312.284447,0.0812046401
331.263138,0.077289716
350.24183,0.0737338264
369.220522,0.0704887379
390.578319,0.0671591635
414.315222,0.06380475
438.052124,0.0607641529
461.789027,0.0579945407
473.657478,0.056700079
503.345539,0.0536954031
518.189569,0.0523059622
547.877629,0.0497255246
562.72166,0.04852516
592.40972,0.0462839268
610.975346,0.0449804033
648.106599,0.0425727993
666.672226,0.0414586933
703.803478,0.0393884568
740.934731,0.0375049153
787.375284,0.0353752695
833.815837,0.0334612145
857.036113,0.0325750532
903.476666,0.0309278358
948.689386,0.0294666773
981.396702,0.0284871453
1032.14971,0.0270812451
1082.90271,0.0257982994
1108.27921,0.0251980905
1159.03221,0.0240718972
1189.95892,0.0234301561
1220.88562,0.0228192624
1278.06847,0.0217640037
1363.84275,0.020340554
1449.61704,0.0190804255
1540.47661,0.0178954975
1631.33619,0.0168412141
1722.19577,0.0158982435
1767.62556,0.01546348
1824.4314,0.0149508739
1932.9828,0.0140573817
2041.5342,0.0132625703
2098.05377,0.0128829852
2154.57334,0.0125245707
2239.3527,0.0120233169
2330.53587,0.0115282923
2393.45926,0.0112108033
2519.30604,0.0106286446
2645.15283,0.0101089114
2708.07622,0.00986985741
2836.13315,0.00942163433
2981.59067,0.00896807922
3127.0482,0.00856609972
3300.73044,0.00814468339
3422.30801,0.0078830425
3597.64222,0.00754822896
3734.93604,0.00731740865
3867.36875,0.00711818726
4004.14351,0.0069344695
4169.14164,0.00674006094
4342.82388,0.00656479155
4476.51166,0.00644879655
4646.7678,0.00632323379
4820.45004,0.00621920333
4994.13228,0.0061381889
5211.23508,0.00606792922
5384.91732,0.00603590618
5602.02012,0.00602592926
5775.70236,0.00604237109
5992.80516,0.00609474831
6177.34254,0.00616892972
6372.73506,0.00628013855
6535.56216,0.00640156105
6687.53412,0.00654181287
6861.21636,0.00673929428
7034.8986,0.00698484905
7165.16028,0.00720820898
7252.0014,0.0073800394
7317.13224,0.00752315435
7382.26308,0.00768036155
7469.1042,0.007915642
7555.94532,0.00818640115
7599.36588,0.00833779206
7642.78644,0.00850170819
7707.91728,0.00877494457
7751.33784,0.00897854114
7794.7584,0.00920248275
7838.17896,0.00945022184
7881.59952,0.0097260542
7925.02008,0.0100353832
7968.44064,0.0103850861
8011.8612,0.0107840303
8033.57148,0.0110054593
8076.99204,0.0115011502
8098.70232,0.0117798533
8131.26774,0.012244201
8163.83316,0.0127745788
8196.39858,0.01338589
8228.964,0.0140976048
8250.67428,0.0146402823
8261.52942,0.0149355535
8283.2397,0.0155810497
8304.94998,0.0163112197
8315.80512,0.0167131047
8337.5154,0.0176028075
8353.79811,0.0183570645
8364.65325,0.0189079749
8380.93596,0.0198171891
8391.7911,0.0204859579
8408.07381,0.0215981152
8418.92895,0.0224227162
8429.78409,0.0233237534
8440.63923,0.0243112948
8451.49437,0.0253971263
8456.92194,0.0259811413
8467.77708,0.0272411809
8479.71773,0.0287872763
8486.23082,0.0297109751
8493.82942,0.0308693035
8498.17147,0.0315737153
8506.85558,0.0330849132
8511.19764,0.0338962364
8519.88175,0.0356431383
8524.22381,0.0365845114
8532.90792,0.0386195587
8537.24998,0.0397207255
8545.93409,0.0421117702
8550.27614,0.0434114707
8558.96026,0.0462475265
8565.47334,0.0486077175
8571.98642,0.051196607
8578.49951,0.0540448708
8585.01259,0.0571884852
8591.52568,0.0606698595
8598.03876,0.0645392596
8604.55184,0.0688566106
8611.06493,0.0736937983
8617.57801,0.0791376311
8621.92007,0.0831551008
8626.26212,0.0875255393
8628.43315,0.0898561357
8632.77521,0.0948375477
8637.11726,0.100290551
8641.45932,0.106276222
8645.80138,0.112865747
8650.14343,0.120142474
8654.48549,0.128204463
8658.82754,0.137167669
8663.1696,0.147169941
8665.34063,0.152611014
8667.51166,0.158376096
8669.68268,0.164491062
8671.85371,0.170984375
8674.02474,0.177887398
8676.19577,0.185234748
8678.3668,0.193064701
8680.53782,0.201419655
8682.70885,0.210346659
8685.96539,0.224925799
8688.13642,0.235525052
8691.39296,0.252915832
8693.56399,0.265619939
8696.82053,0.286570791
8698.99156,0.30195623
8700.07708,0.310119385
8702.2481,0.327471292
8704.41913,0.34631676
8705.50465,0.356351603
8707.67567,0.377761966
8708.76119,0.389188858
8710.93222,0.413627955
8712.01773,0.426702897
8714.18876,0.454737261
8715.27427,0.469773648
8717.4453,0.502098348
8718.53081,0.519481447
8720.70184,0.556952529
8721.78736,0.577157583
8723.95838,0.620832314
8725.58665,0.656732553
8726.67217,0.682314206
8727.75768,0.709317752
8729.38595,0.752700499
8730.47147,0.783692833
8731.55698,0.816472904
8732.6425,0.851161901
8733.72801,0.887888984
8734.81352,0.926791493
8735.89904,0.968015056
8736.98455,1.01171354
8738.07007,1.05804884
8739.15558,1.10719036
8740.24109,1.15931422
8741.32661,1.21460196
8742.41212,1.2732388
8743.49764,1.33541114
8745.12591,1.43570006
8746.75418,1.54494526
8748.38245,1.66365499
8750.01072,1.79219309
8751.74754,1.94027658
8753.48436,2.09941136
8755.22119,2.26867798
8756.95801,2.44628638
8761.73427,2.94924617
8763.47109,3.12119199
8764.77371,3.23917034
8765.64212,3.31063577
8766.51053,3.37512425
8767.37894,3.4316234
8768.24736,3.47919497
8769.11577,3.51701091
8769.98418,3.54438749
8770.85259,3.56081517
8771.67758,3.56599331
8773.02362,3.55245728
8773.89203,3.52950571
8774.76044,3.49587593
8775.62885,3.45218128
8776.49726,3.39919294
8777.36567,3.33780726
8778.23408,3.26901022
8779.5367,3.15419874
8781.27352,2.9849577
8787.3524,2.34718402
8789.08922,2.17360608
8789.95764,2.09026457
8791.69446,1.93141538
8792.56287,1.85612626
8794.51679,1.6971
8795.60231,1.61494397
8796.68782,1.53711865
8798.31609,1.42822818
8799.40161,1.3606423
8800.48712,1.29686182
8802.11539,1.20792538
8803.74366,1.12651012
8805.37193,1.05199325
8807.00021,0.983775581
8808.62848,0.921291927
8810.25675,0.864016688
8811.34226,0.828486101
8812.97053,0.778837046
8814.05605,0.747989633
8815.68432,0.704813286
8816.76983,0.677940404
8818.3981,0.640259206
8819.48362,0.616762768
8821.65464,0.573310428
8822.74016,0.553210201
8824.91119,0.515937102
8827.08221,0.482184808
8829.25324,0.451547522
8831.42427,0.423672478
8833.5953,0.398252556
8835.76633,0.375019913
8837.93735,0.353740504
8840.10838,0.334209396
8842.27941,0.316246758
8844.45044,0.299694437
8846.62147,0.284413033
8849.87801,0.26360842
8852.04904,0.250995902
8854.22006,0.239281099
8857.47661,0.223216901
8860.73315,0.208753647
8863.98969,0.195689648
8867.24623,0.183853395
8870.50277,0.173098409
8873.75932,0.163299063
8877.01586,0.154347176
8880.2724,0.146149236
8882.44343,0.141062285
8886.78548,0.131701143
8888.95651,0.127389564
8893.29857,0.119422447
8895.4696,0.115738124
8899.81165,0.108904473
8904.15371,0.102710814
8906.32474,0.0998295928
8910.66679,0.0944558362
8915.00885,0.0895506864
8917.17988,0.0872571903
8921.52193,0.0829590487
8925.86399,0.0790115265
8928.03502,0.0771575863
8932.37707,0.0736686495
8938.89016,0.0689281808
8943.23221,0.0660592726
8947.57427,0.063397663
8951.91632,0.0609240904
8958.42941,0.0575294495
8962.77146,0.0554552843
8967.11352,0.053517097
8971.45558,0.0517034224
8975.79763,0.0500039744
8980.13969,0.0484095041
8988.8238,0.0455029671
8997.50791,0.0429262975
9006.19202,0.040632247
9014.87614,0.0385817157
9023.56025,0.0367421272
9032.24436,0.0350861672
9040.92847,0.0335907988
9049.61258,0.0322364844
9060.46772,0.0307168078
9071.32286,0.0293642815
9081.09249,0.0282710487
9086.52006,0.0277089964
9097.3752,0.0266718499
9113.65791,0.0253066943
9129.94062,0.0241344097
9146.22333,0.0231225221
9157.07847,0.022524034
9167.93361,0.0219788512
9184.21632,0.0212491043
9205.9266,0.0204166221
9216.78174,0.0200520751
9238.49202,0.0194109244
9260.2023,0.0188703548
9281.91258,0.0184140001
9303.62286,0.0180287645
9325.33314,0.0177040709
9347.04342,0.0174313033
9379.60884,0.0171043818
9423.0294,0.0167938101
9455.59482,0.016636879
9488.16024,0.0165334034
9531.5808,0.016464899
9596.71164,0.0164827683
9640.1322,0.0165601936
9705.26304,0.0167564918
9770.39388,0.017033842
9857.235,0.0175093671
9900.65556,0.0177869768
9987.49668,0.0184135228
10074.3378,0.0191275154
10161.1789,0.0199223687
10278.0753,0.0211115528
10387.6362,0.0223420645
10476.8344,0.0234202145
10566.0326,0.0245600412
10714.6963,0.0265724852
11071.489,0.0315954856
11190.4199,0.0331395366
11279.6181,0.0341797696
11339.0836,0.0347980068
11398.5491,0.0353442226
11458.0145,0.0358088167
11517.48,0.0361830415
11576.9454,0.0364593502
11636.4109,0.0366317196
11695.8764,0.0366959253
11755.3418,0.0366497461
11814.8073,0.03649308
11859.4064,0.0363042185
11904.0055,0.0360559326
11963.4709,0.0356363902
12052.6691,0.0348318561
12112.1346,0.0341911727
12171.6,0.0334783532
12260.7982,0.0322967112
12379.7291,0.0305669839
12736.5219,0.0250346164
12855.4528,0.0232662874
12914.9183,0.0224176933
13033.8492,0.0208049441
13152.7801,0.0193160578
13260.925,0.018076561
13378.2674,0.0168587754
13462.0766,0.0160716264
13503.9812,0.0157043739
13577.8516,0.0151007928
13671.5996,0.0144188352
13755.4088,0.0138954591
13839.218,0.01346501
13881.1226,0.0132902347
13923.0272,0.0131469124
13985.8841,0.0130017966
14027.7887,0.0129618221
14048.741,0.0129624303
14090.6456,0.013013045
14111.5979,0.0130672926
14153.5025,0.0132476112
14174.4548,0.0133810742
14195.4071,0.0135497189
14226.8355,0.0138824362
14247.7879,0.0141692021
14268.7401,0.0145201584
14289.6924,0.0149490569
14300.1686,0.0151980967
14315.8828,0.0156223729
14331.5971,0.01611733
14347.3113,0.0166964696
14363.0255,0.0173767296
14378.7397,0.0181795861
14392.3587,0.0189956606
14404.9301,0.0198685968
14417.5015,0.0208794431
14430.0729,0.0220565314
14438.4538,0.0229510093
14442.6442,0.0234358759
14451.0252,0.0244901542
14455.2156,0.0250638057
14463.5965,0.0263162889
14467.787,0.0270007089
14471.9775,0.0277281119
14480.3584,0.0293264585
14486.6441,0.0306673379
14492.9298,0.0321484338
14499.2154,0.0337894484
14505.5011,0.0356136546
14511.7868,0.0376486967
14515.9773,0.0391385764
14520.1678,0.0407480816
14526.4534,0.0434153357
14532.7391,0.0464325367
14534.8344,0.0475265029
14539.0248,0.0498624718
14543.2153,0.0524158935
14547.4057,0.05521414
14549.501,0.0567148079
14553.6914,0.0599414786
14557.8819,0.0635026223
14562.0723,0.0674452825
14564.1676,0.0695766482
14568.358,0.0741987976
14572.5485,0.0793613051
14574.6437,0.0821714111
14576.739,0.085150107
14579.8818,0.0899641515
14581.977,0.0934263864
14584.0723,0.0971107465
14586.1675,0.101036237
14588.2627,0.105223896
14590.358,0.109697058
14592.4532,0.114481649
14594.5484,0.119606534
14596.6436,0.125103913
14598.7389,0.131009779
14600.8341,0.137364451
14602.9293,0.144213188
14605.0246,0.151606906
14607.1198,0.159603016
14608.1674,0.16384692
14610.2626,0.172870899
14612.3579,0.182676002
14613.4055,0.187898813
14615.5007,0.199046191
14617.5959,0.211220901
14618.6436,0.217731498
14620.7388,0.231684701
14622.834,0.247009182
14623.8816,0.255239165
14625.9769,0.272955581
14627.0245,0.28249579
14629.1197,0.303089859
14630.1673,0.314210328
14631.7387,0.332023701
14633.3102,0.351319037
14634.8816,0.372248714
14636.453,0.394982188
14638.0244,0.419707621
14639.5959,0.446633469
14640.6435,0.465919225
14641.6911,0.486358577
14643.2625,0.519353365
14644.3101,0.543029787
14645.3577,0.568154169
14646.9292,0.608762016
14647.9768,0.637924732
14649.0244,0.668878136
14650.5958,0.718890098
14651.6434,0.754767175
14652.691,0.792786298
14653.7387,0.833036546
14655.3101,0.897759824
14656.7767,0.963013143
14658.0339,1.02270459
14659.7101,1.1075721
14661.3863,1.19803255
14663.0624,1.29315988
14667.6719,1.56369544
14669.3481,1.6565692
14670.6053,1.72040644
14671.4434,1.7591207
14672.2814,1.79408465
14673.1195,1.82474021
14673.9576,1.85056939
14674.7957,1.87111452
14675.6338,1.88599747
14676.4719,1.89493651
14677.31,1.89775936
14678.5671,1.89043929
14679.4052,1.87799525
14680.2433,1.85976178
14681.0814,1.83607953
14681.9195,1.80737586
14682.7576,1.77414647
14683.5957,1.73693536
14684.8528,1.6749075
14686.529,1.58363678
14691.5576,1.28936163
14694.0718,1.14872081
14695.748,1.06126586
14696.5861,1.01972048
14697.8433,0.960256502
14698.7861,0.917934059
14699.8337,0.873189021
14701.4051,0.810481762
14702.9766,0.752863642
14704.548,0.700043028
14706.1194,0.651690326
14707.6908,0.607461654
14709.2623,0.567014867
14710.3099,0.541987686
14711.8813,0.507119433
14712.9289,0.485527005
14713.9765,0.465160039
14715.0241,0.445940567
14716.0718,0.427795205
14717.1194,0.410655069
14718.167,0.394455632
14719.2146,0.379136554
14720.2622,0.364641483
14721.3098,0.350917851
14722.3574,0.337916654
14723.4051,0.32559224
14725.5003,0.302806646
14727.5955,0.282255
14729.6907,0.263672066
14731.786,0.246827898
14733.8812,0.23152294
14735.9764,0.217583761
14738.0717,0.20485938
14739.1193,0.198910906
14741.2145,0.187767065
14743.3097,0.177539132
14745.405,0.168132645
14746.4526,0.163711094
14748.5478,0.155384233
14749.5954,0.151461762
14752.7383,0.140565671
14755.8811,0.130835123
14759.024,0.122113067
14762.1668,0.114267446
14765.3097,0.107186688
14768.4525,0.100776087
14770.5477,0.0968342893
14773.6906,0.0913670019
14775.7858,0.0879921155
14778.9287,0.0832938869
14781.0239,0.0803833644
14784.1667,0.0763178844
14786.262,0.07379108
14790.4524,0.0691324313
14794.6429,0.0649420167
14796.7381,0.0630031697
14800.9286,0.0594050314
14805.119,0.0561413196
14809.3095,0.0531720204
14813.4999,0.0504628851
14818.738,0.0473978567
14823.9761,0.0446447738
14828.1666,0.0426391963
14832.357,0.0407890548
14836.5475,0.0390786819
14840.7379,0.0374943259
14844.9284,0.036023878
14849.1189,0.0346566431
14853.3093,0.0333831474
14857.4998,0.0321949757
14861.6902,0.0310846327
14865.8807,0.0300454257
14870.0712,0.0290713643
14878.4521,0.0272977197
14886.833,0.0257268238
14895.2139,0.0243286164
14903.5948,0.0230783989
14911.9758,0.0219557291
14920.3567,0.0209435725
14924.5471,0.02047438
14932.9281,0.0196019236
14941.309,0.0188083268
14949.6899,0.0180841564
14955.9756,0.0175816945
14966.4517,0.0168129802
14981.1184,0.0158618114
14996.8326,0.0149779164
15012.5468,0.0142091423
15028.261,0.013535572
15043.9752,0.0129414304
15059.6895,0.0124140924
15075.4037,0.0119433576
15096.356,0.0113896115
15106.8321,0.0111399264
15127.7844,0.0106868036
15138.2606,0.0104806563
