energy [eV],cross section [b]
1e-05,584.310626
1.06565003e-05,566.027502
1.13130005e-05,549.359929
1.19695008e-05,534.083193
1.26260011e-05,520.014039
1.38693471e-05,496.160239
1.51126931e-05,475.314455
1.64648733e-05,455.381011
1.80347221e-05,435.112836
1.96045708e-05,417.330822
2.07885508e-05,405.27416
2.2109945e-05,392.978963
2.40920362e-05,376.469283
2.54134304e-05,366.55299
2.70818228e-05,355.08484
2.87502152e-05,344.63009
3.04186076e-05,335.047779
3.2087e-05,326.222955
3.41935124e-05,316.0171
3.63000248e-05,306.713114
3.84065373e-05,298.185551
4.18428911e-05,285.682621
4.58324153e-05,272.96984
4.98219396e-05,261.816551
5.45098968e-05,250.309437
5.78680126e-05,242.941096
6.29051864e-05,233.015651
6.6704223e-05,226.28602
7.09441804e-05,219.423318
7.73041165e-05,210.208376
8.1544074e-05,204.673634
8.68974446e-05,198.272807
9.22508153e-05,192.437677
9.7604186e-05,187.089557
0.00010633714,179.248379
0.00011647589,171.275762
0.000126614639,164.281314
0.000138528347,157.065154
0.000151329533,150.282283
0.00016413072,144.309576
0.000174905906,139.799325
0.000185681092,135.687766
0.000201843871,130.149524
0.000220836216,124.435866
0.000234440967,120.777412
0.000248045719,117.4244
0.00026165047,114.336582
0.000287416511,109.101645
0.000304593871,105.987351
0.000321771232,103.126071
0.000352048049,98.6028607
0.000384580255,94.3515437
0.000417112461,90.6082909
0.000458187628,86.4646376
0.000485571073,83.9996726
0.000526646239,80.6696542
0.000561220579,78.1552568
0.00061308209,74.7908777
0.00064765643,72.7764576
0.000686770382,70.683826
0.000730423948,68.5501121
0.000774077514,66.5998566
0.000817731079,64.8082244
0.00086711636,62.9470988
0.000949791855,60.1634198
0.00103246735,57.7219399
0.00112961657,55.2038157
0.00123400266,52.8376799
0.00133838875,50.7548846
0.00147018664,48.4500128
0.0015580519,47.0792969
0.00168984979,45.2280762
0.00180078847,43.8307257
0.00191172716,42.5573858
0.00202266584,41.3907932
0.00213360453,40.3168708
0.00227367572,39.0754747
0.00241374692,37.9443804
0.00255381811,36.9082298
0.00269388931,35.9544998
0.00295917017,34.3387362
0.00322445103,32.9281821
0.00351295282,31.5808218
0.00384789646,30.2125122
0.00418284011,29.0136377
0.004524372,27.9324425
0.00480630525,27.1291942
0.00521691575,26.0794267
0.00560020549,25.2070342
0.00595617444,24.4745723
0.0063121434,23.8059689
0.00666811236,23.192561
0.00707082006,22.556267
0.00774498973,21.6064923
0.00819443618,21.0409005
0.00864388262,20.5210337
0.00949508932,19.6421059
0.010346296,18.876928
0.0112720117,18.1481844
0.0123467454,17.410622
0.013421479,16.766818
0.0142320432,16.3322973
0.0151366824,15.8910457
0.0164936413,15.3018828
0.0179693793,14.742609
0.0191115769,14.3576795
0.0202537745,14.007977
0.0213959721,13.6887112
0.0236335355,13.1370884
0.0253,12.7789637
0.0265178131,12.5410401
0.0289572196,12.1154167
0.0301788131,11.924321
0.032622,11.5792551
0.0350190046,11.2817553
0.0384675025,10.9120065
0.0419160005,10.5980654
0.045666357,10.3075051
0.0485690729,10.1126491
0.0529231468,9.86097127
0.057030147,9.66086372
0.060643,9.50987938
0.0655643702,9.33604081
0.0704857404,9.19332519
0.0750303053,9.08503579
0.0795748702,8.99628696
0.0841194351,8.92473978
0.0924151026,8.83252666
0.1026745,8.77659816
0.11236548,8.77354655
0.12369025,8.82290193
0.136284084,8.937663
0.144706,9.04718512
0.1587165,9.28546871
0.172727,9.59371892
0.182932973,9.86366426
0.19374275,10.1936013
0.200748,10.4330344
0.20775325,10.693873
0.220463047,11.2260499
0.232271625,11.7957084
0.2427795,12.3714026
0.24978475,12.7953687
0.25679,13.2547766
0.267297875,14.0176316
0.274303125,14.5809962
0.281308375,15.1934275
0.28555923,15.5911569
0.292190365,16.2545955
0.302324125,17.3812985
0.30582675,17.8060174
0.312832,18.7162917
0.31983725,19.7161539
0.3268425,20.8172609
0.330345125,21.4099646
0.337350375,22.6893245
0.3436551,23.9600428
0.35066035,25.5234801
0.35626455,26.9048614
0.3632698,28.819157
0.368874,30.5220572
0.3716761,31.4376527
0.3772803,33.4119208
0.3828845,35.5997867
0.3856866,36.7835564
0.3912908,39.3534911
0.3940929,40.7500653
0.396895,42.2288382
0.3996971,43.7963891
0.40390025,46.3302435
0.40670235,48.1531522
0.4109055,51.1113809
0.4137076,53.2483023
0.41791075,56.731296
0.42071285,59.2587555
0.424916,63.3984447
0.42911915,68.0131584
0.4333223,73.1784469
0.43472335,75.0377931
0.43752545,78.9854568
0.4389265,81.0822156
0.4417286,85.5449353
0.44312965,87.9212414
0.44593175,92.9924783
0.4473328,95.7001929
0.4501349,101.495477
0.452937,107.851421
0.455226828,113.51315
0.45714015,118.602686
0.45994225,126.714098
0.4613433,131.092969
0.4641454,140.575776
0.466246975,148.393665
0.467648025,153.980051
0.469049075,159.893019
0.47115065,169.431682
0.4725517,176.279102
0.47395275,183.554764
0.4753538,191.294639
0.47675485,199.538484
0.4781559,208.33032
0.47955695,217.718978
0.480958,227.758727
0.48235905,238.509998
0.4837601,250.040216
0.48516115,262.424765
0.4865622,275.7481
0.48796325,290.105041
0.4893643,305.602275
0.490064825,313.815511
0.491465875,331.253556
0.492866925,350.162731
0.49356745,360.219415
0.4949685,381.649692
0.49636955,405.004195
0.497070075,417.472685
0.498471125,444.148584
0.499872175,473.377769
0.5005727,489.047327
0.50197375,522.716233
0.502674275,540.813134
0.504075325,579.80277
0.50477585,600.815874
0.5061769,646.213231
0.507227688,683.506405
0.508278475,723.893757
0.509329263,767.690237
0.51038005,815.244911
0.511430838,866.943785
0.512131362,903.920452
0.512831887,943.063455
0.513882675,1006.15836
0.5145832,1051.36792
0.515283725,1099.28595
0.516334513,1176.62079
0.517035038,1232.0793
0.517735562,1290.87638
0.518436088,1353.20082
0.519136613,1419.24064
0.519837138,1489.17915
0.520537662,1563.18979
0.521238188,1641.4296
0.522288975,1766.99948
0.52326971,1893.3019
0.52439055,2048.4285
0.52523118,2172.07076
0.52607181,2301.49175
0.52747286,2527.8953
0.53055517,3042.27994
0.53167601,3217.52323
0.53251664,3337.46541
0.53307706,3409.9448
0.53363748,3475.17972
0.5341979,3532.13334
0.53475832,3579.84622
0.53531874,3617.4733
0.53587916,3644.31894
0.53643958,3659.86752
0.537028021,3663.69672
0.53756042,3656.04431
0.53812084,3636.70904
0.53868126,3606.14857
0.53924168,3564.91164
0.5398021,3513.72386
0.54036252,3453.45633
0.54092294,3385.09013
0.54148336,3309.67903
0.54232399,3185.73889
0.54344483,3005.93975
0.54652714,2483.39258
0.54764798,2299.69396
0.54876882,2124.93742
0.54932924,2041.50463
0.55045008,1883.20146
0.551360763,1763.25456
0.55241155,1634.54213
0.553112075,1554.38247
0.5538126,1478.5955
0.554513125,1407.02332
0.555563913,1307.17788
0.556264438,1245.34572
0.556964962,1187.0711
0.55801575,1105.90322
0.558716275,1055.67564
0.5594168,1008.34035
0.560467588,942.376812
0.561518375,881.965202
0.562569162,826.588362
0.56361995,775.773208
0.564670737,729.089529
0.565721525,686.14778
0.566772312,646.596317
0.5678231,610.11837
0.568523625,587.365306
0.569924675,545.271979
0.5706252,525.792882
0.57202625,489.657808
0.572726775,472.88969
0.574098371,442.325434
0.57482835,427.187802
0.5762294,400.123895
0.57763045,375.432494
0.5790315,352.85604
0.58043255,332.169371
0.5818336,313.175226
0.58323465,295.70041
0.5846357,279.59251
0.58603675,264.717101
0.5874378,250.955358
0.58883885,238.202004
0.590940425,220.761079
0.592341475,210.141908
0.593742525,200.24623
0.5958441,186.623884
0.59724515,178.276585
0.5986462,170.460065
0.600747775,159.637321
0.60284935,149.784491
0.604950925,140.791169
0.6070525,132.561975
0.609154075,125.014199
0.61125565,118.07587
0.6126567,113.75753
0.6154588,105.783958
0.61685985,102.099447
0.61966195,95.2704479
0.621063,92.1031683
0.6238651,86.2125395
0.6266672,80.8551288
0.62806825,78.3567709
0.6294693,75.9693129
0.631570875,72.5822363
0.6350735,67.4074251
0.6378756,63.6456742
0.6406777,60.1821033
0.64207875,58.5525096
0.64488085,55.4805532
0.64768295,52.637803
0.65048505,50.0022858
0.65328715,47.5545793
0.65608925,45.2774669
0.65889135,43.1556458
0.66169345,41.1754785
0.66449555,39.3247815
0.66729765,37.5926438
0.67009975,35.9692722
0.67290185,34.4458566
0.677105,32.3309903
0.6799071,31.0243746
0.6827092,29.7930906
0.68691235,28.0752791
0.68971445,27.0088766
0.69251655,26.0002794
0.6967197,24.587002
0.7023239,22.8699467
0.705126,22.0760352
0.7107302,20.6037139
0.7135323,19.9204549
0.71773545,18.9555902
0.722420231,17.9579626
0.726623381,17.1263184
0.7303449,16.4357057
0.736649625,15.3544955
0.743654875,14.269825
0.750660125,13.292533
0.757665375,12.4090847
0.764670625,11.6079987
0.76817325,11.2352245
0.7751785,10.5397745
0.78218375,9.90476788
0.789189,9.32349798
0.792691625,9.05116812
0.799696875,8.53985451
0.806702125,8.06914201
0.813707375,7.63490851
0.81721,7.4303237
0.82421525,7.04416686
0.827717875,6.86184852
0.83822575,6.35391001
0.848733625,5.89834023
0.8592415,5.48829322
0.869749375,5.11799745
0.88025725,4.78256054
0.890765125,4.47781401
0.897770375,4.28991602
0.90827825,4.02863979
0.9152835,3.86696863
0.922783951,3.70399245
0.932796625,3.50137771
0.939801875,3.36894596
0.946807125,3.24358093
0.957315,3.06773565
0.96432025,2.95800663
0.97833075,2.75481039
0.99234125,2.57104076
1.00635175,2.40434538
1.02036225,2.25271394
1.03437275,2.1144205
1.04838325,1.98797684
1.06239375,1.87209444
1.07640425,1.76565341
1.0834095,1.71566313
1.09742,1.62159115
1.1114305,1.53474082
1.125441,1.45440742
1.13244625,1.41648734
1.153462,1.31087571
1.1630364,1.26647992
1.17533413,1.21255664
1.1954935,1.13104381
1.21650925,1.05419012
1.237525,0.984620398
1.25854075,0.921462861
1.2795565,0.863970758
1.293567,0.82846911
1.31458275,0.779035383
1.32859325,0.748407566
1.349609,0.705625451
1.3636195,0.679037528
1.37763,0.653871326
1.3916405,0.630029769
1.4196615,0.585971648
1.433672,0.565598048
1.461693,0.527814753
1.489714,0.493581418
1.517735,0.462477298
1.545756,0.434141327
1.573777,0.408262327
1.601798,0.38457103
1.629819,0.362833544
1.65784,0.342845969
1.685861,0.324429937
1.713882,0.307428907
1.741903,0.291705068
1.7839345,0.270251719
1.8119555,0.257218455
1.83511435,0.247135877
1.86313535,0.235700495
1.882008,0.228435505
1.9240395,0.213405859
1.95906575,0.201979352
2.00109725,0.189435372
2.04312875,0.178024316
2.08516025,0.16761688
2.12719175,0.158101422
2.16922325,0.149381167
2.21125475,0.141371921
2.25328625,0.134000176
2.28786807,0.128367346
2.3285663,0.122192009
2.35747615,0.118079287
2.386386,0.114176912
2.442428,0.107160661
2.49847,0.100794828
2.554512,0.095003076
2.582533,0.092301606
2.638575,0.0872508042
2.694617,0.0826264138
2.750659,0.078382679
2.806701,0.0744797315
2.86105352,0.0709869824
2.91371655,0.067850863
2.974827,0.0644878306
3.030869,0.0616393173
3.086911,0.058994494
3.142953,0.0565347122
3.198995,0.0542433799
3.255037,0.0521056983
3.311079,0.050108436
3.367121,0.0482397369
3.423163,0.0464889531
3.507226,0.0440631671
3.6137058,0.0412966369
3.71210501,0.0390051944
3.815457,0.0368362894
3.9163326,0.0349246767
3.9891872,0.0336558833
4.067646,0.0323837514
4.17973,0.030718652
4.2946161,0.0291764787
4.35205915,0.0284612667
4.4788527,0.0270003073
4.5482032,0.0262636419
4.61755369,0.0255670436
4.73524189,0.0244686868
4.8319173,0.0236379519
4.9503075,0.0226991511
5.11773298,0.0215018153
5.31247893,0.0202741744
5.49531595,0.0192584423
5.66500644,0.0184166901
5.83345931,0.0176640304
6.07254855,0.0167171561
6.281305,0.015989606
6.42141,0.0155460003
6.6707969,0.0148332389
6.82631345,0.0144326343
6.98183,0.0140616923
7.2003938,0.0135850372
7.54225,0.0129296299
7.9317419,0.0122937309
8.1503057,0.0119799287
8.3772758,0.01168212
8.7303404,0.011268318
9.2010932,0.0107953059
9.50372,0.0105309423
9.88060245,0.0102382524
10.4410225,0.00986604877
11.0336666,0.00953954076
11.4427732,0.00934734353
11.9110313,0.00915551398
12.3935,0.00898514941
12.9761528,0.00881130813
13.66544,0.00864448528
14.2024128,0.0085400431
14.95624,0.00842692262
15.98888,0.00832979626
16.7014016,0.00830016543
17.53784,0.00830599322
18.31232,0.00835613062
18.82864,0.00841910284
19.2132984,0.0084854821
19.60312,0.00857417254
20.11944,0.00873584806
20.4653744,0.00888307022
20.6822288,0.00899708623
20.89392,0.00912918257
21.203712,0.00937105114
21.4154032,0.00958072521
21.513504,0.0096937415
21.720032,0.0099733754
21.823296,0.0101391383
21.978192,0.0104291119
22.081456,0.0106561422
22.236352,0.0110613065
22.339616,0.0113855361
22.44288,0.0117648116
22.546144,0.0122127342
22.649408,0.0127474192
22.726856,0.0132198254
22.804304,0.013768301
22.843028,0.0140763743
22.881752,0.014410447
22.920476,0.0147735774
22.9592,0.0151692884
23.010832,0.0157547202
23.062464,0.0164169369
23.08828,0.0167811593
23.139912,0.0175862607
23.191544,0.0185105023
23.230268,0.0192966546
23.268992,0.0201767225
23.307716,0.021166414
23.34644,0.0222848689
23.385164,0.0235555994
23.423888,0.0250077465
23.436796,0.0255381618
23.462612,0.026677778
23.47552,0.0272905116
23.501336,0.0286118171
23.514244,0.0293249152
23.54006,0.0308688806
23.565876,0.0325899212
23.591692,0.0345162935
23.6046,0.0355668762
23.623962,0.0372656789
23.63687,0.0384883001
23.656232,0.0404732216
23.66914,0.0419077144
23.688502,0.0442469937
23.70141,0.0459454269
23.720772,0.0487289333
23.73368,0.0507604129
23.753042,0.054108426
23.772404,0.0578702935
23.791766,0.0621172633
23.804674,0.065260387
23.811128,0.0669366046
23.824036,0.0705197092
23.83049,0.0724361335
23.843398,0.0765454363
23.849852,0.0787503025
23.86276,0.0834942195
23.875668,0.0887355979
23.882122,0.0915648768
23.89503,0.0976917958
23.901484,0.10101278
23.911165,0.10635333
23.920846,0.112170309
23.930527,0.118522141
23.936981,0.123086816
23.946662,0.130485792
23.956343,0.13862567
23.966024,0.147608788
23.9766408,0.158573499
23.985386,0.168609602
23.995067,0.180940773
24.001521,0.18997058
24.007975,0.199728887
24.011202,0.204905957
24.017656,0.21591143
24.020883,0.221764385
24.027337,0.234238817
24.030564,0.240890542
24.037018,0.255107257
24.040245,0.262709849
24.046699,0.279008739
24.049926,0.287752241
24.05638,0.306560179
24.062834,0.327333333
24.069288,0.350354966
24.0744512,0.370614969
24.0802598,0.395635164
24.0834868,0.410670694
24.0873592,0.429897321
24.0925224,0.457751175
24.0976856,0.48845669
24.1002672,0.505001774
24.1054304,0.540760896
24.108012,0.560104105
24.1118844,0.591153372
24.114466,0.613329253
24.1183384,0.649038527
24.12092,0.674626409
24.1247924,0.715973511
24.1286648,0.761281239
24.1325372,0.811070022
24.1351188,0.847048324
24.1389912,0.905709203
24.1428636,0.970721068
24.146736,1.04302996
24.1506084,1.12376377
24.1518992,1.15277363
24.1544808,1.21427558
24.1557716,1.24689213
24.1583532,1.31619948
24.1609348,1.39145303
24.162871,1.45220966
24.1648072,1.51703036
24.1673888,1.61042132
24.1686796,1.66037687
24.1712612,1.76749946
24.1738428,1.88529041
24.1764244,2.01519919
24.179006,2.158927
24.1815876,2.31848032
24.1828784,2.40491827
24.1841692,2.49623817
24.18546,2.5928095
24.1867508,2.69503679
24.1880416,2.80336366
24.1893324,2.91827734
24.1906232,3.04031383
24.191914,3.17006373
24.1932048,3.30817895
24.1944956,3.45538028
24.1957864,3.61246616
24.1977226,3.86859348
24.1990134,4.05448751
24.2009496,4.35894382
24.2022404,4.58093578
24.2041766,4.94629997
24.2054674,5.21405331
24.2061128,5.35593353
24.2074036,5.65711158
24.208049,5.81702798
24.2093398,6.15721417
24.2099852,6.33823074
24.211276,6.7241668
24.2119214,6.92999242
24.2132122,7.36985974
24.2138576,7.60500634
24.2151484,8.10878219
24.2157938,8.37876497
24.2170846,8.95867304
24.21773,9.27026336
24.2190208,9.94134114
24.2196662,10.3028836
24.220957,11.0836898
24.2222478,11.9500845
24.2228932,12.4189748
24.2235386,12.9137915
24.2245067,13.7084758
24.2251521,14.2760104
24.2257975,14.8761348
24.2264429,15.5110598
24.2270883,16.1831442
24.2277337,16.8948995
24.2283791,17.648993
24.2290245,18.4482488
24.2296699,19.2956452
24.2303153,20.1943083
24.2309607,21.1475003
24.2316061,22.1585999
24.2322515,23.2310749
24.2328969,24.3684416
24.233865,26.2038276
24.2345104,27.5185966
24.2354785,29.6353351
24.2364466,31.9333326
24.2376083,34.9379105
24.238641,37.8347669
24.2396736,40.9338051
24.2412226,45.9024815
24.2440623,55.399248
24.245095,58.6505842
24.2458694,60.8837985
24.2463858,62.2379272
24.2469021,63.4611281
24.2474184,64.5342544
24.2479347,65.4395351
24.248451,66.1612549
24.2489674,66.6864009
24.2494837,67.0052296
24.25,67.1117092
24.2505163,67.0038015
24.2510326,66.6835585
24.251549,66.1570249
24.2520653,65.4339568
24.2525816,64.5273783
24.2530979,63.4530143
24.2536142,62.2286439
24.2541306,60.8734203
24.254905,58.6387129
24.2559377,55.3856754
24.2587774,45.8858622
24.2598101,42.5348852
24.2608427,39.3425737
24.261359,37.8170447
24.2623917,34.9200595
24.2632307,32.7228635
24.2641988,30.3630485
24.2648442,28.8923146
24.2654896,27.5010272
24.266135,26.1864019
24.2671031,24.3512659
24.2677485,23.2140841
24.2683939,22.1418054
24.269362,20.6473953
24.2700074,19.7220979
24.2706528,18.8496866
24.2716209,17.6332752
24.272589,16.5185176
24.2735571,15.4960122
24.2745252,14.5571484
24.2754933,13.6940871
24.2764614,12.8997238
24.2771068,12.4051173
24.2780749,11.7113005
24.279043,11.0704419
24.2803338,10.2900238
24.2816246,9.58500197
24.28227,9.25795699
24.2835608,8.64983759
24.2848516,8.09716061
24.285497,7.83963635
24.2867878,7.35871345
24.2880786,6.91914568
24.2893694,6.51650849
24.2906602,6.14692762
24.291951,5.80700328
24.2932418,5.49374549
24.2945326,5.20451878
24.2958234,4.93699491
24.2971142,4.68911247
24.2990504,4.35017118
24.3003412,4.14382536
24.301632,3.95154975
24.3035682,3.68687449
24.304859,3.52469158
24.3061498,3.37281801
24.308086,3.16252172
24.3100222,2.97105051
24.3119584,2.79625531
24.3138946,2.63628072
24.3158308,2.48951885
24.317767,2.35457132
24.3197032,2.23021773
24.3222848,2.07906453
24.3235756,2.00914796
24.3261572,1.87943456
24.327448,1.81921353
24.3300296,1.70710222
24.3326112,1.6050049
24.333902,1.55734588
24.3364836,1.4681658
24.3390652,1.38641702
24.340356,1.34807579
24.3429376,1.27601094
24.3455192,1.20957192
24.3481008,1.1481914
24.3519732,1.06453248
24.3545548,1.01374736
24.3571364,0.966520295
24.359718,0.922528051
24.3622996,0.881483123
24.3648812,0.843129118
24.3674628,0.807236813
24.3700444,0.773600791
24.372626,0.742036541
24.3752076,0.712377967
24.37908,0.671139464
24.3816616,0.645620586
24.3842432,0.621542438
24.3881156,0.587897117
24.391988,0.556938092
24.3971512,0.519363126
24.4023144,0.485509761
24.404896,0.469827352
24.4100592,0.440689979
24.4126408,0.427142711
24.4165132,0.407982293
24.4197402,0.392999722
24.4236126,0.376104379
24.4281304,0.357760069
24.433939,0.336119806
24.437166,0.324953523
24.44362,0.304263836
24.450074,0.285534207
24.456528,0.268525041
24.462982,0.253032217
24.469436,0.238880973
24.47589,0.225920992
24.482344,0.21402241
24.488798,0.203072568
24.495252,0.192973356
24.501706,0.183639009
24.50816,0.174994298
24.514614,0.166973011
24.521068,0.159516689
24.527522,0.152573561
24.533976,0.146097649
24.543657,0.137171458
24.550111,0.131693889
24.556565,0.126558228
24.566246,0.119435686
24.575927,0.112937857
24.585608,0.106993851
24.598516,0.0998255858
24.60497,0.0965310406
24.617878,0.0904544876
24.624332,0.0876492222
24.63724,0.0824537256
24.643694,0.080045573
24.656602,0.0755689114
24.663056,0.0734864137
24.675964,0.0696020322
24.682418,0.0677891011
24.695326,0.0643971028
24.70178,0.0628092181
24.714688,0.0598299018
24.721142,0.0584313637
24.740504,0.0545624306
24.759866,0.051126631
24.772774,0.0490455456
24.792136,0.0461988411
24.805044,0.0444647045
24.824406,0.0420800223
24.837314,0.0406199691
24.856676,0.038602723
24.869584,0.0373620485
24.8954,0.0351011498
24.921216,0.0330971611
24.934124,0.0321795602
24.95994,0.0304929917
24.985756,0.028981788
24.998664,0.0282844848
25.02448,0.0269936956
25.050296,0.0258266585
25.076112,0.0247681401
25.101928,0.0238051803
25.140652,0.022516105
25.166468,0.0217469001
25.205192,0.0207092059
25.231008,0.0200854539
25.269732,0.0192383375
25.295548,0.0187258967
25.334272,0.0180258826
25.385904,0.0172035226
25.41172,0.0168336672
25.463352,0.0161650891
25.489168,0.0158624694
25.5408,0.0153122657
25.598886,0.0147694728
25.656972,0.0142947893
25.73442,0.0137498418
25.773144,0.0135094294
25.850592,0.0130826164
25.902224,0.0128327761
