energy [eV],cross section [b]
1e-05,195326.746
1.06224947e-05,189516.741
1.15562369e-05,181698.491
1.2489979e-05,174774.224
1.32674736e-05,169575.473
1.40449682e-05,164814.603
1.48224629e-05,160433.406
1.55999575e-05,156383.959
1.65710467e-05,151732.144
1.75421358e-05,147472.141
1.8513225e-05,143551.864
2.00907583e-05,137800.1
2.19100908e-05,131954.164
2.37294233e-05,126794.113
2.58507624e-05,121479.524
2.81231048e-05,116467.568
3.03954473e-05,112028.688
3.22875479e-05,108695.958
3.41796485e-05,105643.927
3.70177995e-05,101512.413
3.91454646e-05,98714.4688
4.15086943e-05,95862.505
4.3871924e-05,93244.1817
4.62351537e-05,90829.2451
4.88926031e-05,88325.6116
5.1844272e-05,85773.636
5.47959409e-05,83430.7208
5.77476099e-05,81269.7952
6.29100726e-05,77862.6278
6.84400151e-05,74649.4456
7.39699575e-05,71803.6366
7.85745485e-05,69666.9711
8.5481435e-05,66791.7168
9.23883215e-05,64245.1889
9.8139446e-05,62333.2194
0.00010389057,60582.2652
0.000112517257,58211.9748
0.000118984391,56606.742
0.000126167533,54970.494
0.000133350675,53468.2697
0.000140533818,52082.7151
0.000148611254,50646.2487
0.000157582984,49182.0203
0.000171040578,47205.5751
0.000185615144,45312.3429
0.000202423651,43388.0312
0.000219232159,41689.4152
0.000238830855,39939.8411
0.000252826715,38816.9345
0.000273820505,37296.7932
0.000298299236,35731.0266
0.000315780036,34726.0779
0.000333260836,33801.2252
0.000350741636,32946.36
0.00038349186,31504.9684
0.000405325342,30642.6229
0.000427158825,29847.2157
0.000451710553,29022.5427
0.000478980527,28181.8872
0.000519885488,27047.0752
0.000564185532,25959.9473
0.000615275742,24854.8664
0.000666365952,23879.2952
0.000725937065,22874.3449
0.000768478109,22229.2836
0.000832289674,21355.9348
0.000880127032,20764.3899
0.000933260706,20161.3363
0.00098639438,19607.6018
0.00103952805,19096.8023
0.00109927681,18567.1562
0.00116564066,18027.1856
0.00123200451,17531.3557
0.00129836835,17073.9532
0.00141443858,16352.5726
0.00153877104,15672.0303
0.0016631035,15069.0831
0.00181839448,14404.4084
0.00197368546,13819.5411
0.00213860639,13269.2858
0.0022986086,12792.8557
0.0023972172,12523.1944
0.00259443439,12030.5414
0.00275593657,11666.9468
0.00299818984,11177.3897
0.00315969201,10882.6112
0.00334130104,10576.8567
0.00364387486,10118.8533
0.00384559075,9843.82908
0.00404730663,9589.48401
0.00442522069,9160.31435
0.00480313476,8782.44523
0.00521241543,8420.10108
0.00568442931,8051.37506
0.00615644318,7725.48745
0.00651029592,7504.54045
0.00690332548,7279.10063
0.00749286982,6974.40699
0.00813134592,6682.0758
0.00862223902,6479.45518
0.00911313211,6293.19615
0.0096040252,6121.18796
0.010156034,5942.62509
0.0107691584,5760.34677
0.0116888451,5513.84208
0.0126848651,5277.16767
0.0138335518,5035.99564
0.0149822385,4822.53975
0.0163216056,4602.05932
0.0172780771,4460.18746
0.0187127844,4267.63205
0.0203856511,4068.64682
0.021580282,3940.55412
0.0227749129,3822.38872
0.0239695439,3712.9104
0.0253,3599.95424
0.0264594775,3508.32736
0.027618955,3422.34788
0.0293581712,3302.74789
0.0308697195,3206.84923
0.0327333387,3097.57251
0.0355287674,2949.51813
0.0386542899,2802.72365
0.04244,2646.34982
0.0456372592,2529.18949
0.0496102503,2399.12615
0.0525174882,2313.119
0.0554247262,2233.72958
0.0583319642,2160.14394
0.0619630983,2075.36534
0.0655942324,1997.49747
0.0692253666,1925.64871
0.0728565007,1859.08284
0.0753123755,1816.74178
0.0802241252,1737.82191
0.0868388081,1642.0819
0.0938298932,1551.92079
0.102326724,1454.89886
0.107991278,1396.6519
0.115971874,1321.96921
0.12292,1263.02366
0.132437947,1190.08251
0.141955895,1124.8281
0.147256921,1091.37388
0.157858974,1029.86251
0.16316,1001.52428
0.170231307,965.960339
0.177302614,932.730511
0.190351307,876.837753
0.196875654,851.245845
0.207912648,811.107554
0.221450593,766.684529
0.238092648,718.340864
0.251688,683.274951
0.268163662,645.395413
0.28388,613.397912
0.299976,584.316436
0.316072,558.567559
0.32412,546.839001
0.340216,525.503772
0.350886992,512.829819
0.36436,498.406319
0.380456,483.376412
0.396552,470.648288
0.412648,460.163964
0.426088646,453.117357
0.436792,448.628418
0.452888,443.800258
0.460936,442.28254
0.477032,441.141777
0.48508,441.573386
0.501176,444.618558
0.509224,447.3229
0.521296,453.014963
0.529344,458.001229
0.538919226,465.308368
0.549464,475.275534
0.561536,489.499903
0.569584,500.886945
0.581656,521.282637
0.589704,537.418579
0.597752,555.903731
0.601776,566.128459
0.609824,588.77884
0.617872,614.734449
0.621896,629.111786
0.629944,661.04447
0.637992,697.816101
0.642016,718.279476
0.64604,740.291705
0.650064,763.993121
0.654088,789.540297
0.658112,817.108271
0.664148,862.684639
0.668172,896.21597
0.674208,951.891635
0.678232,993.040979
0.684268,1061.70753
0.688292,1112.72439
0.690304,1139.98312
0.694328,1198.3402
0.698352,1262.32474
0.700364,1296.63807
0.704388,1370.38158
0.708412,1451.66172
0.710424,1495.4252
0.714448,1589.87038
0.718472,1694.552
0.720484,1751.15312
0.724508,1873.82863
0.72652,1940.32568
0.729538,2047.17333
0.732556,2163.31347
0.735574,2289.69353
0.738592,2427.35379
0.74161,2577.42987
0.744628,2741.15177
0.74664,2858.52821
0.748652,2982.96301
0.75167,3183.77241
0.753682,3327.70828
0.755694,3480.19256
0.757706,3641.63956
0.759718,3812.43944
0.76173,3992.94298
0.763742,4183.44238
0.765754,4384.14781
0.7675648,4573.59397
0.7699792,4839.11496
0.7723936,5119.01871
0.774808,5412.4182
0.7772224,5717.8132
0.7892944,7313.11954
0.7925136,7703.34819
0.794928,7965.63758
0.7965376,8121.36702
0.7981472,8258.9393
0.7997568,8376.05879
0.8013664,8470.65666
0.802976,8540.97439
0.8045856,8585.63956
0.8061952,8603.72832
0.80724144,8601.00883
0.8086096,8580.22738
0.8102192,8531.11187
0.8118288,8456.1462
0.8134384,8356.6343
0.815048,8234.28504
0.8166576,8091.13911
0.8182672,7929.4863
0.8198768,7751.7791
0.8222912,7460.65444
0.8247056,7147.57288
0.8343632,5822.0589
0.8375824,5395.34554
0.8408016,4989.90962
0.8440208,4609.74374
0.84724,4256.79735
0.850258,3951.05111
0.853276,3669.18053
0.855288,3494.06067
0.8573,3328.74425
0.859312,3172.81182
0.861324,3025.81854
0.863336,2887.30717
0.865348,2756.81805
0.86736,2633.89674
0.869372,2518.09955
0.871384,2408.99757
0.873396,2306.17938
0.875408,2209.25285
0.87742,2117.84604
0.879432,2031.60764
0.881444,1950.20691
0.883456,1873.33331
0.886474,1765.87997
0.888486,1699.09219
0.890498,1635.89364
0.893516,1547.32902
0.89754,1439.79605
0.899552,1390.13186
0.903576,1298.17613
0.905588,1255.58586
0.909612,1176.50937
0.911624,1139.78199
0.915648,1071.40655
0.91766,1039.56329
0.921684,980.125898
0.923696,952.373169
0.92772,900.44155
0.929732,876.133235
0.933756,830.538664
0.93778,788.62525
0.939792,768.930466
0.943816,731.852819
0.949852,681.454892
0.953876,650.949074
0.959912,609.259969
0.963936,583.893812
0.969972,549.059096
0.973996,527.763595
0.97802,507.858075
0.982044,489.227161
0.98808,463.446583
0.992104,447.570493
0.996128,432.648416
1.000152,418.607837
1.0082,392.914432
1.016248,370.033835
1.024296,349.588141
1.032344,331.262875
1.040392,314.795196
1.05004715,297.182292
1.059994,281.17074
1.0678344,269.892953
1.07583966,259.470264
1.08384492,250.050703
1.09185018,241.549798
1.09985543,233.89791
1.10786069,227.03878
1.11586595,220.928514
1.1238712,215.534995
1.13187646,210.8377
1.14388435,205.081615
1.15589223,200.900697
1.16790012,198.396064
1.17590537,197.750409
1.179908,197.765655
1.18791326,198.542523
1.19191589,199.339251
1.19992115,201.858663
1.20392377,203.635541
1.2079264,205.800376
1.21192903,208.391816
1.21793297,213.17829
1.2219356,217.046772
1.22593823,221.530584
1.22994086,226.703613
1.23394349,232.651209
1.23794612,239.471882
1.24194874,247.279138
1.24595137,256.203376
1.249954,266.393682
1.25395663,278.019268
1.25795926,291.270067
1.26196189,306.35575
1.26596452,323.501945
1.26996714,342.941863
1.27396977,364.900675
1.2779724,389.569002
1.28157477,414.183972
1.28317582,425.860486
1.28637792,450.527927
1.29118107,490.466334
1.30238843,589.289976
1.30559054,615.245473
1.30799211,632.698792
1.31119422,652.204691
1.31279527,659.979239
1.31439632,666.241045
1.31599737,670.869271
1.31759842,673.769004
1.31919947,674.875531
1.32080053,674.157379
1.3232021,669.675602
1.32480315,664.485567
1.32640421,657.629832
1.32800526,649.222249
1.32960631,639.399383
1.33280841,616.13396
1.33520999,596.179906
1.33761157,574.714861
1.34721787,483.668847
1.35041998,454.276596
1.35522313,412.936472
1.35842523,387.558553
1.36002629,375.56504
1.36302826,354.334987
1.36502957,341.080779
1.36703088,328.526175
1.3690322,316.648255
1.37103351,305.420503
1.37303483,294.814074
1.3760368,280.003243
1.38003943,262.145536
1.38404206,246.228052
1.38804468,232.025097
1.39204731,219.330892
1.39604994,207.961358
1.40005257,197.753883
1.4040552,188.565978
1.40805783,180.273441
1.41206046,172.768334
1.41606308,165.957001
1.42006571,159.758217
1.42406834,154.101514
1.42807097,148.925695
1.4320736,144.177545
1.43607623,139.810714
1.44007886,135.784747
1.44408148,132.06427
1.45208674,125.419536
1.460092,119.670725
1.46809725,114.657672
1.47209988,112.386645
1.48010514,108.249788
1.4881104,104.581197
1.50011828,99.8038474
1.50812354,97.0223951
1.52013142,93.3483822
1.52813668,91.1822209
1.53614194,89.2108772
1.5441472,87.4121767
1.56015771,84.2611221
1.56816297,82.8797497
1.58417348,80.4484516
1.59217874,79.3806679
1.60818925,77.5055212
1.63113443,75.3527291
1.65622079,73.6288627
1.68023657,72.5349682
1.69624708,72.0938327
1.71225759,71.881461
1.72826811,71.9020076
1.74427862,72.164619
1.76299735,72.7982115
1.78470935,74.0169811
1.79918402,75.1520171
1.81365868,76.5777747
1.82813335,78.3299618
1.84260802,80.4527763
1.85708268,83.0009491
1.87155735,86.0424571
1.88603201,89.6621492
1.89326935,91.7211134
1.90050668,93.9666389
1.90774401,96.4165463
1.91498135,99.0909822
1.92221868,102.012783
1.92945601,105.207908
1.94031201,110.578959
1.94754934,114.596373
1.95478668,119.010966
1.96564268,126.484769
1.96926134,129.231592
1.97649868,135.158074
1.98373601,141.725909
1.99097334,149.023876
1.99821068,157.15667
2.00544801,166.24839
2.01268534,176.446948
2.01992267,187.929657
2.02354134,194.21774
2.02716001,200.91039
2.03077867,208.041565
2.03439734,215.648802
2.03801601,223.773675
2.04163467,232.462306
2.04525334,241.765966
2.04887201,251.741757
2.05249067,262.453402
2.05610934,273.972159
2.05972801,286.377874
2.06334667,299.760212
2.06696534,314.220077
2.07058401,329.871274
2.07420267,346.84244
2.07601201,355.867815
2.07963067,375.098232
2.08324934,396.050889
2.086868,418.926797
2.09048667,443.955437
2.092296,457.357635
2.09591467,486.119336
2.09953334,517.763877
2.10134267,534.780867
2.10496134,571.46114
2.10677067,591.238561
2.11038934,633.985301
2.11219867,657.095677
2.11491267,694.151042
2.116722,720.572531
2.119436,763.014789
2.12215,809.136379
2.124864,859.316217
2.127578,913.971548
2.130292,973.559524
2.133006,1038.57759
2.13481534,1085.20298
2.13662467,1134.64698
2.13933867,1214.47862
2.14205267,1301.64522
2.14476667,1396.75253
2.146576,1464.85879
2.14838534,1536.91394
2.15019467,1613.05833
2.15290867,1735.17879
2.1552608,1848.82295
2.15815573,1998.57031
2.16105067,2158.65684
2.1639456,2327.77702
2.17407787,2946.85666
2.17624907,3070.83114
2.17842027,3185.18251
2.17986773,3254.36781
2.1813152,3316.71805
2.18276267,3371.24726
2.18421013,3417.04206
2.1856576,3453.29678
2.18710507,3479.34677
2.18855253,3494.69755
2.19036187,3498.40021
2.19144747,3492.30162
2.19289493,3474.57722
2.1943424,3446.19751
2.19578987,3407.67721
2.19723733,3359.69922
2.1986848,3303.08509
2.20013227,3238.76135
2.20157973,3167.72426
2.20375093,3050.83869
2.20664587,2881.06856
2.21460693,2386.81592
2.21750187,2212.84561
2.2203968,2047.25541
2.22184427,1968.16959
2.2247392,1818.06298
2.22709133,1704.28173
2.22980533,1582.14146
2.23161466,1506.05101
2.233424,1434.09383
2.23523333,1366.12227
2.23704266,1301.97059
2.238852,1241.46184
2.24066133,1184.4132
2.24247066,1130.64024
2.24518466,1055.72363
2.246994,1009.34872
2.24880333,965.630047
2.25151733,904.678302
2.25423133,848.822044
2.25694533,797.58621
2.25965933,750.536985
2.26237333,707.280344
2.26508733,667.459796
2.26780133,630.753683
2.27142,586.160436
2.27322933,565.555133
2.276848,527.386162
2.27865733,509.699943
2.282276,476.848512
2.28408533,461.584223
2.287704,433.155508
2.29132266,407.26338
2.293132,395.179536
2.29675066,372.578377
2.30036933,351.878764
2.30217866,342.178523
2.30579733,323.963961
2.30941599,307.195818
2.31122533,299.308214
2.31484399,284.443654
2.31846266,270.694827
2.32208133,257.955463
2.32569999,246.13129
2.32931866,235.138497
2.33293733,224.902411
2.33655599,215.356357
2.34017466,206.440684
2.34379333,198.101911
2.34741199,190.291999
2.35103066,182.967709
2.35464933,176.090055
2.35826799,169.623816
2.36188666,163.537122
2.36550533,157.801078
2.37093332,149.797746
2.37817066,140.128262
2.38540799,131.459263
2.38902666,127.457464
2.39626399,120.046364
2.40350132,113.341435
2.41073866,107.255531
2.41435732,104.421079
2.42159466,99.1279748
2.42883199,94.287866
2.43606932,89.8500743
2.43968799,87.7681146
2.45054399,82.0119108
2.46139999,76.9030653
2.47225599,72.3465875
2.48311199,68.2642337
2.49396799,64.591103
2.50482399,61.2730102
2.51567998,58.2644402
2.52291732,56.411445
2.53739198,53.027855
2.54462932,51.4803105
2.55538082,49.3385652
2.56634132,47.3294701
2.58081598,44.9137458
2.58805331,43.7965348
2.60252798,41.7229455
2.60976531,40.759411
2.62423998,38.9631495
2.63147731,38.1248916
2.65318931,35.8208363
2.67128264,34.1120666
2.68937598,32.566954
2.71470664,30.6377703
2.73279997,29.402851
2.75089331,28.2705667
2.76898664,27.2287283
2.79612664,25.8132406
2.81421997,24.9552421
2.8323133,24.1572985
2.85040664,23.4132361
2.87754663,22.386604
2.9137333,21.1616072
2.93182663,20.6024439
2.9680133,19.5756754
3.00419996,18.6545955
3.02229329,18.2285057
3.05847996,17.436669
3.09466662,16.7157837
3.14894662,15.7469961
3.19166528,15.0649583
3.23941328,14.3732763
3.27559995,13.8922297
3.32987995,13.231042
3.38415994,12.6327013
3.42034661,12.2642819
3.45653327,11.9176395
3.5289066,11.2822582
3.60127993,10.7138305
3.6374666,10.4515204
3.70983993,9.96547528
3.78221326,9.52509744
3.81839993,9.32018415
3.92695992,8.75925998
4.03551992,8.26871191
4.10789324,7.97539771
4.21645324,7.57962721
4.32501324,7.23078909
4.43357323,6.92336385
4.50594656,6.73923785
4.61113337,6.49887921
4.73160003,6.26037596
4.85206669,6.05849293
4.9323778,5.94335238
5.01591437,5.8397525
5.13315558,5.72216356
5.21346669,5.66077307
5.2937778,5.61567972
5.37408891,5.58791805
5.45440002,5.57899461
5.53471113,5.59103004
5.57486668,5.60578736
5.63510002,5.64013342
5.69533335,5.69088289
5.77564446,5.78845667
5.83587779,5.88843171
5.89611113,6.01638332
5.95634446,6.17843218
6.01657779,6.38284437
6.05673335,6.54810104
6.0968889,6.74156757
6.11696668,6.85057365
6.15712223,7.09732907
6.19727779,7.3894218
6.21735557,7.55568446
6.23812601,7.74410484
6.25751112,7.93685141
6.2775889,8.15584019
6.29766668,8.39705926
6.31774445,8.66351328
6.33782223,8.95874508
6.35388445,9.21844779
6.36593112,9.42856516
6.3860089,9.81158297
6.41010223,10.3335788
6.42616445,10.7257348
6.44222667,11.1589535
6.4582889,11.6391566
6.47435112,12.1733816
6.49041334,12.7700431
6.50647556,13.4392688
6.52253778,14.1933346
6.53860001,15.0472332
6.54663112,15.5172282
6.55466223,16.0194264
6.56269334,16.556842
6.57072445,17.1328503
6.57875556,17.75124
6.59080223,18.767766
6.59883334,19.51199
6.60686445,20.3161152
6.61489556,21.1867414
6.62694223,22.6341352
6.63497334,23.7063956
6.64300445,24.8767187
6.65103556,26.157392
6.65505111,26.8434785
6.66308223,28.31713
6.67111334,29.941343
6.67512889,30.8163602
6.68316,32.7071007
6.69119111,34.8084542
6.69520667,35.9479308
6.70323778,38.4274113
6.70725334,39.7779205
6.71327667,41.9589422
6.71729222,43.5263835
6.72331556,46.0669082
6.72733111,47.8995307
6.73335445,50.8816103
6.73937778,54.1777402
6.74540111,57.8326272
6.75142445,61.8989937
6.75744778,66.4393029
6.76347111,71.5279124
6.76547889,73.3608532
6.76949445,77.2537743
6.77150222,79.3218954
6.77551778,83.7238317
6.77752556,86.0674902
6.78154111,91.0673079
6.78354889,93.7354285
6.78756445,99.4411307
6.79158,105.688991
6.79559556,112.54601
6.79961111,120.089067
6.80362667,128.406518
6.80764222,137.600043
6.81165778,147.786746
6.81567333,159.101536
6.81768111,165.229627
6.81968889,171.699731
6.82169667,178.534908
6.82370445,185.759848
6.82571222,193.400949
6.82772,201.486395
6.82972778,210.046227
6.83173556,219.112384
6.83374333,228.718732
6.836755,244.219897
6.83876278,255.337316
6.84177445,273.288863
6.84378222,286.167966
6.84679389,306.961282
6.84980556,329.653709
6.85281722,354.385777
6.85582889,381.283414
6.85783667,400.468296
6.85984445,420.678619
6.86305689,455.158315
6.86466311,473.372044
6.86787556,511.641795
6.87269422,572.977553
6.88152844,690.11766
6.88474089,730.181663
6.88715022,757.680292
6.88875644,774.342826
6.89036267,789.383382
6.89196889,802.56583
6.89357511,813.671146
6.89518133,822.505804
6.89678756,828.909749
6.89839378,832.76339
6.89991969,833.994456
6.90240933,830.878135
6.90401556,825.551612
6.90562178,817.733677
6.907228,807.566559
6.90883422,795.229429
6.91044044,780.930817
6.91204667,764.900336
6.914456,738.138857
6.91766844,698.676075
6.928912,549.885113
6.93212444,509.379889
6.93373067,489.931339
6.93694311,452.862354
6.93935244,426.756215
6.94115944,408.155412
6.94316722,388.471883
6.945175,369.810629
6.94818667,343.680634
6.95019444,327.453547
6.95220222,312.135824
6.95521389,290.772413
6.95822555,271.214509
6.96123722,253.315569
6.96424889,236.933409
6.96726055,221.933128
6.97027222,208.188744
6.97228,199.665695
6.97529167,187.760834
6.97729944,180.367495
6.98031111,170.023964
6.98231889,163.589238
6.98432667,157.496096
6.98633444,151.722987
6.99035,141.057855
6.99235778,136.129652
6.99637333,127.000619
7.00038889,118.745587
7.00440444,111.262892
7.00842,104.46422
7.01243555,98.2727501
7.01645111,92.621554
7.02046667,87.4522127
7.02448222,82.7136323
7.02849778,78.3610306
7.03251333,74.3550714
7.03652889,70.6611249
7.04255222,65.6393693
7.04656778,62.5993802
7.05058333,59.7789328
7.05660666,55.9166169
7.06263,52.4448491
7.06865333,49.3139477
7.07467666,46.4817337
7.0807,43.9122394
7.08672333,41.5746636
7.09274666,39.4425214
7.09877,37.4929503
7.10479333,35.7061406
7.11282444,33.5474605
7.11684,32.5540944
7.12487111,30.7202276
7.12888666,29.8730246
7.13691777,28.3033018
7.14093333,27.5755606
7.14896444,26.2227418
7.15298,25.5935513
7.16101111,24.420442
7.17305777,22.8502629
7.18108889,21.9138561
7.19313555,20.6519039
7.20116666,19.8944573
7.21321333,18.867723
7.22124444,18.2480781
7.22927555,17.6746726
7.24132222,16.8921863
7.24935333,16.4169791
7.2614,15.7659785
7.26943111,15.3691993
7.28549333,14.6543774
7.30155555,14.03131
7.30958666,13.7499333
7.32564888,13.2403595
7.33367999,13.0096969
7.34974222,12.5912673
7.37383555,12.0574749
7.39792888,11.6187119
7.42202222,11.2593315
7.44611555,10.9671419
7.47221666,10.7153766
7.49229444,10.5616872
7.5224111,10.388191
7.55252777,10.2751934
7.58264444,10.215895
7.6127611,10.2053579
7.64287777,10.2401444
7.66295555,10.2873887
7.7031111,10.438022
7.735,10.610738
7.76719431,10.8338239
7.78561145,10.9842753
7.81410716,11.2515279
7.84434287,11.5839442
7.86450001,11.8357663
7.89473573,12.2632532
7.91489287,12.584608
7.94512858,13.1279134
7.96528573,13.5357723
7.98544287,13.9847774
8.01366287,14.6917595
8.03382001,15.2607047
8.0459143,15.6310056
8.06204001,16.1622022
8.08622858,17.0494578
8.11041715,18.0633786
8.13460572,19.2294299
8.15073144,20.1071419
8.16685715,21.0789126
8.17492001,21.6044942
8.19104572,22.7454997
8.19910858,23.3657649
8.21523429,24.7199293
8.22329715,25.4604273
8.23539143,26.6612163
8.24345429,27.5282744
8.25554858,28.9415417
8.26361143,29.9675508
8.27570572,31.6497188
8.28376858,32.8784827
8.29586286,34.9065939
8.30795715,37.1913297
8.32005143,39.7800308
8.32811429,41.7032236
8.33214572,42.7316218
8.34020858,44.9367695
8.34424,46.1201647
8.35230286,48.6673896
8.35633429,50.0397358
8.36439715,53.0061228
8.37044429,55.4469002
8.37649143,58.0968104
8.38052286,59.9918431
8.38858572,64.128253
8.39463286,67.5722333
