energy [eV],cross section [b]
1e-05,110.992815
1.05864711e-05,107.874605
1.14661776e-05,103.653849
1.27079094e-05,98.4595
1.3793985e-05,94.5039003
1.52420858e-05,89.9026118
1.65829421e-05,86.1913387
1.83707505e-05,81.8899954
1.99213064e-05,78.6385113
2.15767121e-05,75.5616522
2.32321178e-05,72.8198141
2.52758625e-05,69.8137289
2.6638359e-05,68.0048679
2.86821037e-05,65.5372321
3.03642261e-05,63.6960313
3.28874097e-05,61.2038126
3.64489576e-05,58.1367182
3.85256864e-05,56.5480632
4.06024153e-05,55.082907
4.49994611e-05,52.3225415
4.88453192e-05,50.2204675
5.39731299e-05,47.775262
5.87211817e-05,45.8030252
6.34692335e-05,44.0564609
6.85885646e-05,42.3803978
7.24964911e-05,41.2222912
7.64044176e-05,40.1542132
8.22663074e-05,38.6971477
8.70909883e-05,37.6099729
9.43280095e-05,36.1383902
0.000104543278,34.3273586
0.000110499773,33.3893024
0.000116456269,32.5241683
0.000129067921,30.8942475
0.000140098651,29.6530283
0.000154806291,28.2091973
0.000168424702,27.0446404
0.000182043114,26.0133362
0.000196726432,25.0236597
0.000207935188,24.3398237
0.000224748321,23.4116516
0.000242876176,22.520944
0.000256714376,21.9054922
0.000270552575,21.3378832
0.000291309875,20.5635531
0.000308394356,19.9857932
0.000325478837,19.4541412
0.000359647799,18.5068462
0.000391286253,17.7427804
0.000433470858,16.8572277
0.000470057322,16.1878142
0.000509117791,15.5543488
0.00054817826,14.9898544
0.000596401862,14.3709523
0.000628550931,13.9985361
0.000676774533,13.4904855
0.000716465401,13.1114064
0.000776001703,12.5982873
0.000835538004,12.1410347
0.00088453989,11.7998576
0.000933541776,11.4859063
0.000982543662,11.1957423
0.00103154555,10.9265055
0.00109204271,10.619439
0.00118278845,10.2037941
0.00131087874,9.69226471
0.00142291238,9.30271767
0.00153494602,8.95663257
0.00166450086,8.60083277
0.00175671115,8.37193939
0.00189502659,8.06044854
0.0020549735,7.74021263
0.00216881525,7.5341974
0.00233957789,7.25383923
0.00246677263,7.0642081
0.00260732035,6.87102147
0.00274786806,6.69284893
0.00304544893,6.35715933
0.00321896752,6.18327668
0.0033924861,6.02290702
0.003759876,5.72075693
0.00408121205,5.49065129
0.0044025481,5.28621198
0.00477413864,5.07602665
0.00503861715,4.94080568
0.00543533492,4.75678335
0.00589409629,4.56758644
0.00622061841,4.4458668
0.00671040158,4.28021645
0.00707522284,4.16816753
0.00747834326,4.05401334
0.00788146368,3.94872669
0.00873498822,3.75034686
0.00923267602,3.64758172
0.00973036383,3.55279804
0.0107841153,3.37420378
0.0117057747,3.23817984
0.0126274341,3.11731702
0.013693234,2.99304484
0.014831104,2.87542688
0.015968974,2.77059726
0.0169055081,2.69236719
0.0183103093,2.58645735
0.0197151105,2.49205901
0.0208713446,2.42161079
0.0220275788,2.35677332
0.023183813,2.29683823
0.0248200236,2.21927376
0.0264874851,2.14772485
0.0288624553,2.0567026
0.0318122825,1.95812747
0.0344557955,1.88073784
0.0370993086,1.81174707
0.0403629592,1.73607361
0.0436266098,1.66902609
0.0471454653,1.60465225
0.0498316422,1.56015121
0.0538609075,1.49971984
0.0582052457,1.44169172
0.0615215686,1.40157324
0.0681542143,1.33025653
0.0718595226,1.29476092
0.0759538164,1.2585799
0.084142404,1.19425242
0.0887169347,1.16223012
0.0937717024,1.12958545
0.101353854,1.0852369
0.109528901,1.0426307
0.118889737,0.999294805
0.128250574,0.960743893
0.139075373,0.921055977
0.146779893,0.895491483
0.158336674,0.860656924
0.171700845,0.824784842
0.181212757,0.801672356
0.20023658,0.760413886
0.211979876,0.737720487
0.223723172,0.716806482
0.247209764,0.679459519
0.26895697,0.649250885
0.283455107,0.631032539
0.297953244,0.614131029
0.323101545,0.58749671
0.349950393,0.562216336
0.376799242,0.539619595
0.40994652,0.514762848
0.432044705,0.499760686
0.465191982,0.479235667
0.492474146,0.463873479
0.533397391,0.443009394
0.560679554,0.430346031
0.591161757,0.41721222
0.641685122,0.397469681
0.675367365,0.385513465
0.709049609,0.374388315
0.77142517,0.355672954
0.833800731,0.339020101
0.90105382,0.322965372
0.978061966,0.306577592
1.05507011,0.291949223
1.11243062,0.282016823
1.17581286,0.271866037
1.27088622,0.258035372
1.33426847,0.249618147
1.41251945,0.239990864
1.49077044,0.231106402
1.56902142,0.22287395
1.64727241,0.215217733
1.74388016,0.206466266
1.8887918,0.194590116
2.03370344,0.183981954
2.21260967,0.172331072
2.39151591,0.162003308
2.54099004,0.154224082
2.69012353,0.147122153
2.86569411,0.139492122
3.0412647,0.132546831
3.19068503,0.127106675
3.37247864,0.121000231
3.55427225,0.115390219
3.82696266,0.107779532
4.05140295,0.102140259
4.16362309,0.0995068744
4.38806337,0.0945735748
4.61250366,0.0900404167
4.7247238,0.0879092314
5.00181518,0.0829943102
5.27890655,0.0785219315
5.55599793,0.0744367443
5.83308931,0.0706924033
6.17518311,0.0664821566
6.51727692,0.0626704852
6.68832382,0.0608978068
7.03041763,0.0575909327
7.20146453,0.0560469707
7.62380959,0.0525139054
7.83498211,0.0508830752
8.25732716,0.0478622817
8.46849969,0.0464616978
8.89084474,0.0438569204
9.32502237,0.0414240684
9.54211119,0.0402912977
9.91136675,0.0384806461
10.2157002,0.0370895326
10.5200337,0.0357820501
10.976534,0.0339635608
11.4593405,0.0322078144
11.9421469,0.0306050605
12.5858889,0.0286772702
12.9077599,0.0277934675
13.2296308,0.0269580895
13.7501909,0.0257011782
14.3462582,0.0243909772
14.7436363,0.0235864028
15.1410145,0.0228320027
15.5383927,0.0221240077
16.3331491,0.0208339171
17.1223322,0.0197000281
17.5933966,0.0190850315
18.064461,0.0185118739
18.7710576,0.0177237783
19.7131865,0.0167925407
20.6553153,0.0159811364
21.4950865,0.0153464724
22.3348576,0.0147859365
23.1746288,0.0142919861
24.0144,0.0138582595
24.7576066,0.0135203175
25.5008131,0.0132221731
26.5585357,0.01286125
27.263684,0.0126591875
28.3214066,0.0124100598
29.0265549,0.0122781566
30.0842775,0.0121292032
31.142,0.0120369432
32.0252643,0.012002345
32.9239,0.0120064715
33.99304,0.0120633695
34.8234054,0.0121472939
35.9513481,0.0123189718
36.84408,0.0125042556
37.91322,0.0127875369
38.868558,0.013101755
39.5596956,0.0133680773
40.6003252,0.0138367799
41.5874978,0.0143648031
42.5336867,0.0149571232
43.4923489,0.0156553525
44.3565704,0.0163816507
44.7414608,0.0167382158
45.3401792,0.0173376755
46.2382568,0.0183507567
46.537616,0.0187221926
47.1363344,0.0195215272
47.5615031,0.0201388779
47.9866718,0.0208015936
48.60462,0.0218541063
48.961,0.0225141048
49.2746144,0.0231300347
49.8305672,0.0243103639
50.38652,0.0256166966
50.7821018,0.0266324297
51.1776836,0.0277280064
51.6534509,0.0291631174
52.16842,0.0308792162
52.5248,0.0321782936
52.8740524,0.0335501531
53.4121862,0.0358790356
53.6812531,0.0371528036
53.95032,0.0385075867
54.3851036,0.0408859231
54.6327877,0.0423561843
54.8804718,0.0439189231
55.1281559,0.0455819938
55.37584,0.047354109
55.643125,0.0493999709
55.8818996,0.0513556297
56.1812588,0.0539955217
56.480618,0.0568673818
56.7799772,0.0599991431
57.0027147,0.0625169287
57.2218884,0.0651669004
57.585396,0.0699835351
57.8990104,0.074619136
58.1841144,0.0792773987
58.369432,0.0825604564
58.511984,0.0852362791
58.8042156,0.0911732584
59.0893196,0.0976241848
59.2437895,0.101426536
59.4433334,0.106695437
59.6524,0.112693393
59.794952,0.11709302
59.937504,0.121768284
60.151332,0.129350296
60.293884,0.134823596
60.507712,0.143738373
60.650264,0.150202884
60.864092,0.160783278
61.006644,0.168494508
61.220472,0.181184405
61.4343,0.195416423
61.505576,0.200546748
61.648128,0.211451828
61.79068,0.223298744
61.933232,0.236199511
62.075784,0.250283334
62.218336,0.265699873
62.360888,0.282623263
62.521259,0.303718043
62.628173,0.319151771
62.68163,0.327323032
62.788544,0.344656152
62.842001,0.35385409
62.948915,0.373412448
63.002372,0.383817024
63.109286,0.405999542
63.162743,0.417831991
63.251838,0.438755216
63.323114,0.456666006
63.430028,0.485696016
63.501304,0.506639727
63.608218,0.540730302
63.679494,0.565434089
63.786408,0.605836429
63.857684,0.635259366
63.964598,0.683637017
64.035874,0.71906488
64.071512,0.737832806
64.142788,0.777668278
64.178426,0.798820417
64.249702,0.843827537
64.320978,0.892790521
64.392254,0.946187727
64.427892,0.974718675
64.499168,1.03583118
64.570444,1.10293261
64.64172,1.17683308
64.712996,1.25848454
64.784272,1.34901166
64.855548,1.44975085
64.891186,1.50443747
64.926824,1.56230001
64.962462,1.62358951
64.9981,1.68858235
65.033738,1.75758334
65.069376,1.83092933
65.105014,1.90899331
65.140652,1.99218918
65.17629,2.08097729
65.229747,2.22578363
65.283204,2.38633639
65.318842,2.50327234
65.35448,2.6290635
65.390118,2.76462779
65.425756,2.91100525
65.461394,3.06937804
65.497032,3.24109446
65.53267,3.42769771
65.568308,3.63096072
65.603946,3.85292844
65.621765,3.97165247
65.6484935,4.16033586
65.675222,4.36283969
65.693041,4.5061967
65.728679,4.81502232
65.764317,5.15682391
65.782136,5.34157815
65.817774,5.74225644
65.835593,5.95976361
65.853412,6.18989941
65.871231,6.43366085
65.8979595,6.827282
65.9157785,7.1101588
65.9335975,7.41102659
65.9514165,7.73144393
65.978145,8.25256466
65.995964,8.62986452
66.0226925,9.24633303
66.0405115,9.69481465
66.06724,10.4313809
66.085059,10.9701313
66.0939685,11.2553139
66.1117875,11.8601207
66.120697,12.1809906
66.138516,12.8631036
66.1474255,13.2258685
66.1652445,13.9990356
66.174154,14.4113127
66.191973,15.292476
66.2008825,15.763693
66.2187015,16.7739208
66.227611,17.3158576
66.24543,18.4816097
66.2543395,19.1091379
66.2677038,20.1120925
66.281068,21.1961159
66.2953232,22.4518875
66.3086874,23.7332994
66.3220517,25.1275551
66.3363069,26.7545284
66.3505621,28.5446237
66.3657082,30.650576
66.3728359,31.7230339
66.3808544,32.9981249
66.387982,34.1970929
66.3960005,35.6255856
66.4040191,37.1453143
66.4120377,38.7641935
66.4200562,40.4910124
66.4280747,42.3355523
66.4360933,44.3087243
66.4450028,46.6668895
66.4539123,49.217846
66.4628218,51.983107
66.4717313,54.9872586
66.4806408,58.2584987
66.4895503,61.8292891
66.4984598,65.7371496
66.5073693,70.0256271
66.512715,72.8021865
66.5180607,75.746287
66.5269702,81.0631877
66.5323159,84.5247941
66.5376616,88.2114509
66.5430073,92.1429448
66.548353,96.3412669
66.5536987,100.830912
66.5590444,105.639224
66.5643901,110.796802
66.5697358,116.337966
66.5750815,122.301312
66.5804272,128.730359
66.5857729,135.674308
66.5929005,145.831371
66.5982462,154.207134
66.60181,160.193031
66.6053738,166.529505
66.6107195,176.75243
66.6142833,184.091647
66.6178471,191.890218
66.6214109,200.186593
66.6249747,209.023253
66.6285385,218.447209
66.6321023,228.510581
66.6356661,239.271265
66.6392299,250.793693
66.6427937,263.149715
66.6463575,276.419613
66.6499213,290.693276
66.6534851,306.071562
66.6570489,322.667882
66.6588308,331.462125
66.6623946,350.130206
66.6668494,375.692063
66.6713041,404.05314
66.6757589,435.619017
66.6775408,449.246945
66.6802136,470.86723
66.6819955,486.120643
66.6846683,510.361929
66.6873412,536.370225
66.6900141,564.310865
66.6917959,584.101307
66.6944688,615.680347
66.6971417,649.7276
66.6998145,686.486352
66.7024873,726.227173
66.7051602,769.250948
66.7078331,815.892093
66.709615,849.177586
66.7113968,884.354828
66.7140697,940.950615
66.7158516,981.437585
66.7176335,1024.3044
66.7203064,1093.42055
66.7220882,1142.96032
66.7238701,1195.48393
66.726543,1280.29029
66.7283249,1341.1394
66.7301068,1405.68468
66.7318887,1474.14294
66.7336706,1546.73249
66.7354525,1623.6693
66.7372344,1705.16188
66.7390163,1791.40481
66.7416891,1930.04459
66.744362,2080.18403
66.747213,2253.1843
66.7500641,2439.13734
66.7529151,2636.98527
66.7557662,2844.65662
66.7636065,3433.32518
66.7664576,3634.87228
66.7685958,3773.31161
66.7700214,3857.25811
66.7714469,3933.09046
66.7728724,3999.62174
66.7742979,4055.75025
66.7757234,4100.5017
66.777149,4133.06921
66.7785745,4152.84855
66.78,4159.46554
66.7814255,4152.79351
66.782851,4132.95933
66.7842766,4100.33739
66.7857021,4055.53216
66.7871276,3999.3507
66.7885531,3932.76757
66.7899786,3856.88469
66.7914042,3772.88919
66.7935424,3634.37975
66.7963935,3432.74652
66.8042338,2843.89244
66.8085104,2535.84472
66.8113614,2343.72206
66.8142125,2164.14117
66.8174199,1977.89028
66.8200928,1835.44516
66.8227656,1704.24007
66.8245475,1622.74693
66.8272204,1508.98743
66.8290023,1438.49385
66.8307841,1372.02358
66.832566,1309.35849
66.8343479,1250.28351
66.8361299,1194.58907
66.8379118,1142.07287
66.8396937,1092.54104
66.8414755,1045.80888
66.8432574,1001.70129
66.8450393,960.052857
66.8468213,920.707861
66.8486032,883.520043
66.850385,848.352326
66.8530579,799.110165
66.8548398,768.449792
66.8566217,739.396385
66.8601855,685.714137
66.8637493,637.3366
66.8655312,614.93655
66.869095,573.359651
66.8708769,554.055417
66.8744407,518.128704
66.8762226,501.403016
66.8797864,470.194359
66.8815683,455.627491
66.8851321,428.379208
66.886914,415.629309
66.8904778,391.722988
66.8922597,380.510404
66.8958235,359.438964
66.8993873,340.020565
66.9011692,330.879426
66.904733,313.640319
66.9100787,290.142608
66.9136425,275.880935
66.9172063,262.622584
66.9207701,250.277685
66.9261158,233.299814
66.9296796,222.905553
66.9332434,213.178526
66.9368072,204.06383
66.940371,195.511992
66.9439348,187.478349
66.9474986,179.922509
66.9510624,172.807878
66.9546262,166.101246
66.95819,159.772426
66.9617538,153.793932
66.9653176,148.1407
66.9724452,137.72042
66.9795728,128.350772
66.9867004,119.896493
66.9902642,115.976164
66.9973918,108.685962
67.0045194,102.056406
67.011647,96.010639
67.0152108,93.1856545
67.0205565,89.1745908
67.0259022,85.4151659
67.0330298,80.7589441
67.0365936,78.571357
67.0437212,74.4529617
67.047285,72.5133729
67.0579764,67.1259944
67.0686678,62.3142646
67.0757954,59.3867702
67.0864868,55.3658525
67.0936144,52.9068503
67.1043058,49.5131549
67.1114334,47.4281331
67.1221248,44.538136
67.1292524,42.7551875
67.1399438,40.274245
67.1470714,38.7378972
67.154199,37.2874892
67.1613266,35.9167481
67.172018,33.9976551
67.1791456,32.802173
67.1934008,30.5923087
67.207656,28.5978013
67.2219112,26.7916143
67.2290388,25.9518353
67.2397302,24.7641015
67.2539854,23.3028838
67.2646768,22.2899797
67.278932,21.0387741
67.296751,19.6171953
67.3056605,18.9597036
67.3234795,17.7399071
67.332389,17.17358
67.350208,16.1191665
67.3591175,15.6279229
67.3769365,14.7103351
67.385846,14.2814849
67.403665,13.4780662
67.421484,12.7404398
67.4303935,12.3940794
67.4482125,11.7423352
67.4660315,11.140572
67.474941,10.8568534
67.49276,10.3209224
67.5194885,9.58833361
67.5373075,9.14234928
67.5551265,8.72670913
67.5729455,8.33872451
67.5907645,7.97599786
67.6085835,7.63638571
67.6264025,7.31796708
67.6442215,7.01901631
67.6620405,6.73797978
67.6798595,6.47345567
67.6976785,6.22417657
67.7154975,5.9889943
67.7333165,5.76686669
67.7511355,5.55684607
67.777864,5.26264825
67.813502,4.90531388
67.84914,4.58310481
67.884778,4.29156791
67.9115065,4.09075416
67.938235,3.90368344
67.973873,3.67353641
68.009511,3.46311699
68.02733,3.36460869
68.062968,3.17976909
68.080787,3.09299728
68.116425,2.92975724
68.134244,2.8529308
68.169882,2.70805476
68.187701,2.63971148
68.241158,2.44948418
68.294615,2.27906139
68.348072,2.12578916
68.38371,2.03202236
68.437167,1.90256724
68.472805,1.82300292
68.526262,1.71267962
68.5619,1.6445912
68.615357,1.54981175
68.650995,1.49109652
68.686633,1.43564918
68.722271,1.38323197
68.775728,1.30981921
68.811366,1.26407098
68.882642,1.17946969
68.953918,1.10307171
69.025194,1.03385126
69.09647,0.970937952
69.132108,0.941610103
69.185565,0.900045078
69.239022,0.861169159
69.310298,0.813129344
69.381574,0.768996006
69.45285,0.728357597
69.524126,0.690855342
69.595402,0.656175325
69.702316,0.608853185
69.773592,0.580093462
69.844868,0.553325106
69.951782,0.516519822
70.058696,0.483272118
70.16561,0.453139152
70.272524,0.425744876
70.397257,0.396820675
70.504171,0.374319567
70.611085,0.353687345
70.717999,0.334723537
70.824913,0.317253846
70.931827,0.301126156
71.038741,0.286207234
71.199112,0.265842986
71.341664,0.249530994
71.41294,0.241939344
71.555492,0.227773753
71.698044,0.214835691
71.76932,0.20878361
71.911872,0.197437042
72.054424,0.187010782
72.196976,0.177409342
72.339528,0.168549365
72.410804,0.164374244
72.553356,0.156492353
72.695908,0.14918554
72.83846,0.142400607
72.9677262,0.136659649
73.1416967,0.129494739
73.266116,0.124731709
73.408668,0.119612665
73.55122,0.114826375
73.693772,0.110346204
73.9076,0.104148263
74.050152,0.100333927
74.192704,0.0967519178
74.335256,0.093385611
74.4706804,0.090373708
74.6794835,0.0860579929
74.9511061,0.0809849824
75.2227288,0.0764590146
75.4943515,0.072421306
75.7659741,0.068823443
75.9470559,0.0666493973
76.2186786,0.0637008101
76.3997604,0.0619318587
76.671383,0.0595580455
76.8524648,0.0581552518
77.1240875,0.0563134052
77.2598988,0.0555093632
77.5315215,0.0541360303
77.6673328,0.053568676
77.9389555,0.0526818548
78.1200373,0.0522837043
78.3916599,0.0520014372
78.5727417,0.0520440673
78.7538235,0.0522935742
78.8443644,0.0525035135
79.0254462,0.0531126426
79.206528,0.0540054281
79.3876097,0.055228881
79.5686915,0.0568439811
79.6592324,0.0578224501
79.7497733,0.0589306228
79.8403142,0.06018262
79.9308551,0.0615948251
80.0666664,0.0640561636
80.1572073,0.0659597523
80.2477482,0.0681062446
80.3382891,0.0705296491
80.3835595,0.0718576017
80.4741004,0.0747751687
80.5193709,0.0763782355
80.6099118,0.0799119781
80.6551822,0.0818608445
80.7457231,0.0861759486
80.7909935,0.0885673505
80.836264,0.0911339943
80.8815344,0.0938926711
80.9494401,0.0984329327
80.9947105,0.101760373
81.039981,0.105358353
81.0852514,0.109256867
81.1305219,0.113490445
81.1984275,0.120558197
81.243698,0.125818853
81.2663332,0.128635057
81.3116037,0.134680878
81.3568741,0.141342472
81.3795093,0.144931837
81.4247798,0.152692636
81.4700502,0.16133194
81.4926854,0.166025614
81.5379559,0.176267817
81.5832263,0.187822071
81.6058615,0.194167735
81.6398144,0.204501
81.6624496,0.211996846
81.6850848,0.220037222
81.70772,0.22868067
81.7416729,0.242926112
81.7643081,0.253393544
81.7869433,0.264747729
81.8095785,0.27710091
81.8412679,0.296328529
81.8639031,0.311661873
81.8865383,0.328548065
81.9137006,0.35119748
81.9227547,0.359404006
81.9408628,0.376929904
81.958971,0.396106274
81.9680251,0.406384191
81.9861333,0.42848393
81.9951874,0.440380776
82.0132955,0.466083486
82.0223496,0.479988232
82.0404578,0.51019032
82.0495119,0.526620205
82.063093,0.55314062
82.0766742,0.582179618
82.0902553,0.614087384
82.1038364,0.649278327
82.1174176,0.688245772
82.1309987,0.731580715
82.1445798,0.779995958
82.158161,0.834357456
82.1717421,0.895725423
82.1762692,0.917956194
82.1853232,0.965408788
82.1898503,0.990755278
82.1989044,1.04503814
82.2034314,1.07413152
82.2124855,1.13666463
82.2215396,1.20567351
82.2305937,1.28210487
82.2351207,1.32344757
82.2441748,1.41318906
82.2532289,1.5135937
82.257756,1.56833636
82.262283,1.62643906
82.2690736,1.72051871
82.2736006,1.78832268
82.2781277,1.86061346
82.2826547,1.93779535
82.2871817,2.02031831
82.2917088,2.10868402
82.2962358,2.20345302
82.3007629,2.30525288
82.3052899,2.41478772
82.309817,2.53284925
82.314344,2.66032964
82.3188711,2.79823645
82.3233981,2.94771014
82.3279251,3.11004454
82.3324522,3.2867107
82.3369792,3.47938494
82.3415063,3.68998158
82.3460333,3.92069126
82.3482968,4.0443595
82.3528239,4.31006262
82.3573509,4.60287629
82.3596145,4.76054204
82.3641415,5.10086333
82.3686685,5.47823631
82.3720638,5.78860441
82.3754591,6.12506871
82.3777226,6.36518937
82.3811179,6.75125105
82.3845132,7.17121643
82.3879085,7.62858608
82.3913038,8.12719828
82.394699,8.67123322
82.3980943,9.26520147
82.4014896,9.9139084
82.4048849,10.6223831
82.4071484,11.1304386
82.4094119,11.6688478
82.4116755,12.2390672
82.413939,12.8424562
82.4162025,13.4802195
82.418466,14.1533346
82.4225404,15.4558782
82.4243512,16.0723841
82.4279728,17.3727763
82.4297836,18.0548495
82.4334053,19.4749989
82.446081,24.6872032
82.4497026,26.068201
82.4524189,27.004224
82.4542297,27.5646493
82.4560405,28.0642909
82.4578513,28.4951253
82.4596621,28.8498707
82.461473,29.1222766
82.4632838,29.3073891
82.466,29.4143198
82.4687162,29.3130576
82.470527,29.1317145
82.4723379,28.8630638
82.4741487,28.5120545
82.4759595,28.0849327
82.4777703,27.5889762
82.4795811,27.0322057
82.4822974,26.1016035
82.485919,24.7277127
