energy [eV],cross section [b]
1e-05,4260.95857
1.05744987e-05,4143.59341
1.11489974e-05,4035.42088
1.22979948e-05,3842.28011
1.33577721e-05,3686.7071
1.44175493e-05,3548.61923
1.55585054e-05,3416.02172
1.68618189e-05,3281.34357
1.85995703e-05,3124.29188
1.96681132e-05,3038.23371
2.07366561e-05,2958.916
2.28737419e-05,2817.29506
2.41878354e-05,2739.6923
2.55019288e-05,2668.16773
2.81301158e-05,2540.46129
2.97461873e-05,2470.48311
3.13622587e-05,2405.98589
3.45944017e-05,2290.82668
3.75755675e-05,2198.06685
4.05567332e-05,2115.73229
4.49883345e-05,2008.81549
4.74324919e-05,1956.36924
5.23208067e-05,1862.72681
5.6829542e-05,1787.29843
6.13382772e-05,1720.34732
6.61923808e-05,1656.05792
6.9888941e-05,1611.66015
7.54337813e-05,1551.28651
7.91303414e-05,1514.61275
8.36763692e-05,1472.88713
8.8222397e-05,1434.4295
9.73144525e-05,1365.7634
0.000105700506,1310.45304
0.00011408656,1261.35871
0.000123114984,1214.21595
0.000133428149,1166.33301
0.000147179035,1110.49479
0.000155634451,1079.8973
0.000164089868,1051.6961
0.0001810007,1001.34253
0.000191399167,973.750361
0.000201797634,948.319065
0.0002121961,924.780535
0.000228988581,890.209388
0.00024177661,866.334529
0.000260958653,833.868252
0.000281610037,802.692164
0.000305200104,771.026132
0.000336653526,734.098465
0.000365664577,704.352604
0.000394675629,677.949097
0.000425908922,652.594556
0.000461586698,626.841227
0.000497264474,603.910886
0.00052378257,588.407173
0.000553033576,572.615743
0.000596910087,551.141239
0.00064414753,530.519521
0.000680120403,516.277712
0.000752066149,490.922271
0.000792172295,478.311836
0.000836411716,465.467172
0.000902770846,447.999559
0.000974213074,431.225171
0.0010558215,414.186123
0.00116463273,394.314355
0.00126499473,378.305965
0.00136535672,364.095194
0.00143226472,355.462136
0.00151454814,345.639084
0.00163797327,332.3151
0.00176139841,320.415695
0.00186259051,311.554451
0.00196378262,303.386341
0.00206497473,295.825386
0.00216616684,288.799835
0.00229061284,280.805535
0.00241505884,273.436365
0.00253950484,266.614787
0.00266395084,260.276095
0.00281699447,253.063157
0.00304655991,243.27858
0.00327612536,234.539129
0.00355844482,224.970872
0.00384076427,216.47535
0.00414470936,208.314967
0.00437617357,202.677816
0.0047233699,195.009824
0.0050971614,187.643791
0.00538181597,182.555036
0.00595112511,173.491605
0.00626848642,168.982015
0.00661855446,164.387207
0.00731869055,156.202698
0.00770898132,152.129984
0.00813949482,147.979978
0.00878526506,142.333425
0.00948050119,136.907476
0.0102746691,131.392005
0.011068837,126.477157
0.0119846712,121.422947
0.0126357827,118.166264
0.01361245,113.722861
0.0147387423,109.152595
0.0155394789,106.20723
0.0171409522,100.941892
0.0181256976,98.0528454
0.0191104431,95.3874229
0.021079934,90.6213544
0.023189967,86.195859
0.0253,82.3282259
0.0274134275,78.9040871
0.029647431,75.6837265
0.0318814345,72.8020119
0.0346288109,69.640624
0.0364603951,67.7305622
0.0392077715,65.1151304
0.0414602528,63.1633726
0.0448389749,60.5098402
0.0470914562,58.8978668
0.0496027471,57.2284156
0.0537578976,54.7207114
0.0592980984,51.7850232
0.0644081004,49.4104718
0.0678147684,47.9741697
0.0712214364,46.6388373
0.0771142889,44.5345109
0.0833985667,42.5324844
0.0896828445,40.7372482
0.0948351122,39.3956159
0.0999873798,38.1551255
0.107715781,36.4576094
0.116628171,34.7053451
0.122964427,33.572571
0.129300684,32.5207328
0.13563694,31.5404728
0.147325426,29.8942991
0.155117751,28.8976072
0.162910075,27.9704139
0.176389234,26.5083685
0.190763729,25.1167247
0.205138223,23.8686654
0.22281597,22.4969205
0.234601134,21.6670959
0.25227888,20.5299637
0.266772269,19.6810629
0.281265657,18.8971655
0.295759046,18.1705202
0.310252435,17.4946293
0.328076396,16.7249666
0.345900358,16.0152261
0.372636301,15.0476973
0.403468181,14.0545804
0.436348029,13.115776
0.469227877,12.2802775
0.505950248,11.4490618
0.530431829,10.9460326
0.5671542,10.257344
0.5936321,9.80389238
0.626783903,9.28065662
0.643359804,9.03579761
0.676511607,8.57621903
0.693087509,8.36031275
0.730048445,7.90893617
0.75043348,7.67629174
0.791203551,7.24217575
0.811588586,7.03939472
0.852358656,6.65951377
0.872743691,6.48140211
0.922882702,6.07343177
0.973021713,5.70373402
1.02316072,5.36745839
1.08417239,4.99750973
1.13853568,4.69955061
1.18023881,4.48883873
1.24011223,4.21039648
1.28002784,4.03897772
1.31994345,3.87784298
1.37681639,3.6644183
1.43368932,3.46812927
1.47160461,3.34588739
1.54743519,3.11997
1.58535048,3.01546534
1.63953352,2.87496254
1.72087229,2.68170344
1.8141287,2.48306894
1.90521004,2.30953743
1.96593094,2.20372276
2.04007179,2.08406554
2.12763259,1.9548631
2.2151934,1.83730423
2.2589738,1.78246516
2.3465346,1.67992216
2.40078635,1.62078423
2.45503811,1.56473451
2.53912351,1.48348702
2.6232089,1.40847518
2.6652516,1.37311504
2.7913797,1.2748031
2.90529214,1.19499976
3.01920458,1.12266249
3.12771469,1.05989891
3.2362248,1.00246775
3.34743608,0.948550968
3.45864735,0.899116024
3.56985863,0.853703083
3.69704306,0.806183383
3.81624091,0.765480967
3.91946561,0.732932376
4.0226903,0.702663052
4.125915,0.674481638
4.2741967,0.637313632
4.34833755,0.620072149
4.4943719,0.588489044
4.6808477,0.552299067
4.8673235,0.520201599
5.0156052,0.497264058
5.08974605,0.486578667
5.23802775,0.466654635
5.4604503,0.440072427
5.6155908,0.423650215
5.83286925,0.40327971
5.97943625,0.391129099
6.2018588,0.374934458
6.3501405,0.365544393
6.57256305,0.353438869
6.72084475,0.34663277
6.90605062,0.339508386
7.091549,0.333884867
7.2398307,0.330480522
7.3881124,0.328063129
7.5363941,0.326664213
7.6846758,0.326331772
7.8329575,0.327133112
7.9812392,0.329158654
8.1295209,0.332527043
8.2778026,0.337392045
8.4260843,0.343951863
8.574366,0.352461901
8.7226477,0.363252384
8.83385897,0.373095666
8.90799983,0.380614271
8.98214068,0.388990377
9.09335195,0.403369559
9.1674928,0.414328861
9.24163365,0.42654154
9.35284492,0.44756405
9.42698577,0.463664505
9.4640562,0.472426373
9.53819705,0.49154367
9.57526748,0.501976948
9.64940832,0.524816343
9.68647875,0.537325433
9.7606196,0.564820507
9.83476045,0.596092212
9.87183088,0.613352018
9.9089013,0.631824272
9.96450694,0.662053692
10.0015774,0.684074986
10.057183,0.720281821
10.1127886,0.760825938
10.1683943,0.806412089
10.2054647,0.840019047
10.2610703,0.896001638
10.2796055,0.916322844
10.316676,0.959757232
10.3352112,0.982984443
10.3722816,1.03277798
10.3908168,1.05948738
10.4278872,1.11693394
10.4733929,1.19572526
10.5020281,1.25064951
10.5316844,1.31248077
10.5539267,1.36251766
10.5761689,1.41601573
10.6058253,1.49329934
10.6354816,1.57820377
10.665138,1.67176269
10.6947943,1.77519113
10.7244506,1.88992501
10.754107,2.01767098
10.7763492,2.12323265
10.7911774,2.1987991
10.8060056,2.27890711
10.8208338,2.36392731
10.8356619,2.45426886
10.8504901,2.55038432
10.8653183,2.65277524
10.8801464,2.7619987
10.8949746,2.8786748
10.9098028,3.00349534
10.9246309,3.137234
10.9394591,3.28075818
10.9542873,3.43504287
10.9691155,3.60118701
10.9913577,3.87540156
11.0061859,4.07699924
11.021014,4.29559127
11.0395493,4.59573334
11.0580845,4.92996504
11.0729126,5.2254405
11.0803267,5.38361437
11.0951549,5.72307747
11.1099831,6.09678382
11.1173972,6.29792268
11.1322253,6.73209782
11.1396394,6.96663935
11.1544676,7.47490576
11.1655887,7.8942672
11.1767098,8.35055895
11.187831,8.8481844
11.1989521,9.39221178
11.2100732,9.98849575
11.2211943,10.6438253
11.2323155,11.3661039
11.2434366,12.1645709
11.2545577,13.0500735
11.2619718,13.6949864
11.2693859,14.3885723
11.280507,15.5310609
11.2879211,16.3690503
11.2953352,17.2756633
11.3027493,18.258332
11.3101634,19.3254776
11.3175774,20.4866636
11.3249915,21.7527745
11.3324056,23.1362257
11.3398197,24.6512083
11.3472338,26.3139763
11.3546479,28.1431797
11.362062,30.1602529
11.365769,31.2468088
11.3731831,33.5930818
11.3768901,34.860412
11.3824507,36.8909498
11.3861577,38.3377421
11.3917183,40.6601916
11.3954253,42.3180192
11.4009859,44.9840278
11.4065465,47.8848531
11.412107,51.0447082
11.4176676,54.4901341
11.4232282,58.2500256
11.4287887,62.3555486
11.4343493,66.8398884
11.4399099,71.7377529
11.4436169,75.2502118
11.4473239,78.9725857
11.451031,82.9148979
11.454738,87.0864886
11.4584451,91.4956143
11.4621521,96.1489484
11.4688248,105.1528
11.4717904,109.413935
11.4777217,118.400675
11.4806873,123.113551
11.4866186,132.924163
11.507378,168.893197
11.5133093,178.405898
11.5177577,184.845073
11.5207234,188.695281
11.523689,192.122875
11.5266546,195.072404
11.5296203,197.493594
11.5340687,200.042877
11.5370344,200.974787
11.5398517,201.270626
11.5429656,200.923039
11.5459313,199.939877
11.5488969,198.338984
11.5518625,196.1498
11.5548282,193.411542
11.5577938,190.171493
11.5607594,186.483066
11.5637251,182.40376
11.5681735,175.682352
11.5741048,165.905933
11.5904158,137.38792
11.596347,127.336378
11.6022783,117.763869
11.6052439,113.190402
11.6111752,104.507101
11.6159944,97.9228041
11.6215549,90.852614
11.625262,86.4469336
11.628969,82.2797828
11.6326761,78.3427424
11.6382366,72.8477032
11.6419437,69.443083
11.6456507,66.233141
11.6512113,61.7601325
11.6549183,58.990944
11.6586254,56.380305
11.6641859,52.7407333
11.6697465,49.4058201
11.6753071,46.3473425
11.6808676,43.5394585
11.6864282,40.9586482
11.6919887,38.5835998
11.6975493,36.3950618
11.7031099,34.3756818
11.7068169,33.1156258
11.714231,30.7834926
11.717938,29.7037991
11.7253521,27.7000331
11.7290592,26.7698032
11.7364733,25.0387942
11.7438873,23.4640378
11.7475944,22.7297292
11.7550085,21.357454
11.7624225,20.102031
11.7698366,18.9510666
11.7772507,17.893698
11.7846648,16.9203837
11.7920789,16.022724
11.799493,15.1933075
11.8069071,14.4255803
11.8143211,13.7137337
11.8217352,13.0526083
11.8291493,12.4376112
11.8365634,11.8646455
11.8439775,11.3300485
11.8550986,10.5930106
11.8625127,10.1407062
11.8699268,9.71667294
11.8810479,9.12873431
11.892169,8.59260539
11.9032902,8.10246494
11.9144113,7.65327518
11.9255324,7.2406605
11.9403606,6.7408806
11.9477747,6.51037941
11.9626028,6.08390998
11.9700169,5.88644778
11.9848451,5.51976819
11.9922592,5.34938247
12.0070874,5.03192423
12.0145014,4.88392813
12.0293296,4.60734022
12.0367437,4.47801101
12.0515719,4.23562829
12.0664,4.01299905
12.0738141,3.90843407
12.0886423,3.71163579
12.1108845,3.44419788
12.1257127,3.28231317
12.147955,3.06102215
12.1627831,2.92631413
12.1776113,2.80078577
12.1924395,2.6836285
12.2146817,2.52203022
12.2295099,2.42280566
12.2443381,2.32973729
12.2591662,2.24233065
12.2739944,2.16013975
12.2888226,2.08276151
12.3036508,2.00983091
12.3184789,1.94101679
12.3407212,1.84486298
12.3703775,1.72847423
12.4000339,1.62392908
12.4296902,1.52969062
12.4593465,1.44446289
12.4890029,1.36714704
12.5149522,1.3052462
12.5371944,1.25602456
12.5779719,1.17395498
12.6150423,1.10740941
12.6335775,1.07668472
12.670648,1.019786
12.6891832,0.993419699
12.7262536,0.944427839
12.7447888,0.921651462
12.7818592,0.879202279
12.8003944,0.859409853
12.8449574,0.815339874
12.8930705,0.772737437
12.9301409,0.74301021
12.9857466,0.702834896
13.022817,0.678660331
13.0784226,0.645823221
13.1154931,0.625971249
13.1525635,0.60758078
13.2081691,0.582460354
13.2452395,0.567195786
13.3193804,0.539797612
13.3935212,0.516043425
13.4305917,0.505362923
13.5047325,0.486111096
13.5418029,0.477441965
13.6159438,0.4618056
13.6530142,0.454764939
13.7271551,0.442078711
13.8383663,0.42613572
13.9495776,0.413367556
14.0607889,0.403303448
14.1720002,0.395577384
14.2832114,0.389903989
14.4314931,0.38515572
14.505634,0.383876228
14.6539157,0.383320549
14.8021974,0.38526201
14.9504791,0.389565286
15.0987608,0.396167081
15.2470425,0.405067837
15.3953242,0.41632773
15.495,0.425279948
15.56989,0.432772946
15.6445075,0.440922449
15.7579235,0.454688067
15.832541,0.464706845
15.9429775,0.481044494
16.0549038,0.499596487
16.16683,0.520364608
16.2787563,0.543600131
16.3906825,0.569604138
16.4653,0.588653762
16.5772263,0.620110587
16.6891525,0.65547158
16.8010788,0.695335784
16.913005,0.74043502
17.0249313,0.791670056
17.0808944,0.819927799
17.1368575,0.850159135
17.1741662,0.871500027
17.2487838,0.917303965
17.3234012,0.967734124
17.36071,0.994880744
17.4353275,1.0534935
17.4726363,1.0851677
17.5472537,1.15384763
17.5845625,1.19112703
17.65918,1.27235491
17.7151431,1.33984146
17.7711062,1.41376623
17.8270694,1.49499422
17.8830325,1.58454411
17.9389956,1.6836226
17.9949588,1.79366794
18.0509219,1.91640574
18.106885,2.05392133
18.1628481,2.20875417
18.1815025,2.26473277
18.2188113,2.38402269
18.2374656,2.44762926
18.2747744,2.58359118
18.3120831,2.73247633
18.3493919,2.89601804
18.3680462,2.98390818
18.405355,3.17336739
18.435202,3.33953104
18.4687799,3.54407763
18.4874342,3.66667806
18.5098195,3.8231331
18.5396665,4.04920757
18.5695135,4.29770541
18.5993605,4.57175067
18.6292075,4.87503397
18.644131,5.03897891
18.673978,5.39460154
18.6889015,5.58771197
18.703825,5.79209507
18.7187485,6.0086572
18.7411337,6.35855066
18.7560572,6.61016584
18.7784425,7.01833974
18.793366,7.31309904
18.8157512,7.79340872
18.8306748,8.14187918
18.85306,8.71255215
18.8754452,9.34864574
18.8978305,10.0606167
18.9052922,10.3169116
18.9202158,10.8610895
18.9276775,11.1501427
18.942601,11.7654153
18.9500628,12.09307
18.9649862,12.7924039
18.972448,13.165858
18.9873715,13.9652943
18.9948332,14.3934915
19.0097568,15.313055
19.0246802,16.3263409
19.0396037,17.4464741
19.0470655,18.05134
19.061989,19.3616387
19.0731816,20.4423031
19.0806434,21.2147347
19.0881051,22.0325253
19.0992977,23.3521954
19.1067595,24.2998519
19.1142212,25.3070593
19.121683,26.3788429
19.1291447,27.5207587
19.1366065,28.7389605
19.1440683,30.0402773
19.15153,31.432301
19.1589917,32.9234888
19.1664535,34.52328
19.1739153,36.2422319
19.181377,38.0921772
19.1888387,40.0864054
19.1963005,42.2398758
19.2000314,43.3815178
19.2074931,45.8061682
19.2149549,48.4364835
19.2186857,49.8358454
19.2261475,52.8188112
19.2336093,56.0710898
19.2373401,57.808013
19.2448019,61.525429
19.2522636,65.6006305
19.2559945,67.7861222
19.2634563,72.483849
19.2671871,75.009828
19.2746489,80.454206
19.2783797,83.3895791
19.2858415,89.7338991
19.2914378,94.9482185
19.2970341,100.597622
19.3026304,106.726627
19.3082267,113.38461
19.3138231,120.626209
19.3175539,125.807699
19.3212848,131.294557
19.3268811,140.142604
19.330612,146.485241
19.3343429,153.210244
19.3399392,164.06869
19.3436701,171.859162
19.3474009,180.121824
19.3511318,188.883683
19.3548627,198.171701
19.3585936,208.012242
19.3623244,218.430355
19.3660553,229.448861
19.3716516,247.143609
19.3768749,264.954863
19.3828442,286.849261
19.3873213,304.314789
19.3932907,328.878586
19.3992601,354.656766
19.415676,427.692767
19.4216453,452.681992
19.4261224,469.838636
19.4291071,480.237404
19.4320918,489.626673
19.4350765,497.859233
19.4380612,504.798509
19.4410459,510.323789
19.4440306,514.335195
19.4470153,516.758042
19.4498508,517.546012
19.4529847,516.684421
19.4559694,514.188734
19.4589541,510.106021
19.4619388,504.511677
19.4649235,497.506216
19.4679082,489.210904
19.4708929,479.762775
19.4738776,469.309395
19.4783546,452.079333
19.484324,427.008665
19.5007399,353.841058
19.5067093,328.043796
19.5126787,303.472963
19.5186481,280.384667
19.5231251,264.123534
19.5283484,246.325884
19.5339447,228.65033
19.5376756,217.646762
19.5414064,207.244984
19.5451373,197.42194
19.5488682,188.152376
19.5525991,179.409748
19.5563299,171.166941
19.5600608,163.396813
19.5656571,152.569553
19.569388,145.86565
19.5731189,139.544269
19.5787152,130.728256
19.5824461,125.262777
19.5861769,120.102633
19.5917732,112.892917
19.5973696,106.266572
19.6029659,100.168889
19.6085622,94.5504438
19.6141585,89.3666829
19.6216202,83.0624504
19.6253511,80.1468318
19.6328129,74.7413786
19.6365437,72.2345712
19.6440055,67.5746152
19.6477364,65.4077283
19.6551981,61.3691931
19.6626599,57.6877462
19.6663907,55.9685573
19.6738525,52.7512704
19.6813142,49.8026925
19.6850451,48.4203106
19.6925069,45.8235513
19.6999686,43.4319508
19.7036995,42.3066559
19.7111612,40.185547
19.718623,38.2232666
19.7260847,36.4048906
19.7335465,34.7171626
19.7410083,33.1482822
19.74847,31.6877228
19.7559317,30.3260743
19.7633935,29.0549077
19.7708553,27.8666578
19.778317,26.7545215
19.7857787,25.7123695
19.7932405,24.7346692
19.8007023,23.8164181
19.8118949,22.5407128
19.8230875,21.3751024
19.838011,19.9720973
19.8529345,18.7202861
19.8603963,18.144735
19.8753197,17.0834582
19.8902432,16.1294401
19.9051667,15.2696827
19.9126285,14.8716291
19.927552,14.133037
19.9424755,13.4639806
19.9536681,13.0032518
19.9648607,12.574593
19.987246,11.8037305
20.0096312,11.1342424
20.0245548,10.7372381
20.0394782,10.3755563
20.0618635,9.89268978
20.0842488,9.47373712
20.106634,9.11145488
20.1290192,8.79986008
20.1514045,8.5340137
20.1737898,8.30985091
20.196175,8.12404789
20.2110985,8.02013949
20.2409455,7.85732692
20.2707925,7.75127783
20.3006395,7.69932223
20.325,7.69600305
20.3483727,7.72564799
20.3782543,7.81093263
20.3931952,7.87399159
20.4230768,8.04264429
20.4380177,8.14917741
20.4678993,8.40972131
20.4828402,8.56527624
20.5052514,8.83285167
20.5276626,9.14495828
20.5500739,9.50622042
20.5650147,9.77708645
20.587426,10.2332641
20.6023668,10.5739391
20.624778,11.1464286
20.6397189,11.5736208
20.6621301,12.2918957
20.6696005,12.5541158
20.6845414,13.1164115
20.695747,13.5739919
20.7069526,14.0652051
20.7218934,14.777585
20.7293639,15.1605881
20.7443047,15.9857444
20.7517751,16.4303744
20.7667159,17.3907018
20.7741863,17.9095365
20.7891272,19.0334141
20.7965976,19.642472
20.8115384,20.9662372
20.8190088,21.6861419
20.8264792,22.4485992
20.8339497,23.2568581
20.8451553,24.5630145
20.8563609,25.9938749
20.8675665,27.5650972
20.8787722,29.2948425
20.8899778,31.2042587
20.9011834,33.3180727
20.912389,35.6653198
20.9198594,37.3765017
20.9273299,39.2181797
20.9385355,42.2544275
20.9460059,44.4831935
20.9534763,46.8958873
20.9609467,49.5124173
20.9684171,52.3553433
20.9758875,55.4502867
20.983358,58.8264111
20.9908284,62.5169841
20.9982988,66.560035
21.0057692,70.999124
21.0095044,73.3825251
21.0169748,78.5116843
21.0244452,84.1762164
21.0281805,87.2310181
21.0356509,93.8349637
21.0393861,97.4060162
21.0431213,101.172407
21.0468565,105.147193
21.0524593,111.531013
21.0561945,116.090246
21.0617973,123.425667
21.0655325,128.673312
21.0711353,137.129694
21.0767382,146.351737
21.082341,156.416976
21.0879438,167.409055
21.0935466,179.417055
21.0991494,192.53417
21.1028846,201.94204
21.1066198,211.913036
21.110355,222.474105
21.1140902,233.650371
21.1178254,245.464067
21.1215606,257.933192
21.128284,282.063064
21.1327663,299.352856
21.1372485,317.573663
21.1417308,336.662
21.146213,356.512843
21.1671302,452.998525
21.1731065,478.532588
21.1775888,495.823655
21.1805769,506.166653
21.1835651,515.378234
21.1865533,523.309592
21.1895414,529.825753
21.1925296,534.81095
21.1955178,538.17354
21.2,540.044736
21.2029882,539.141866
21.2059763,536.533536
21.2089645,532.268618
21.2119527,526.425777
21.2149408,519.109904
21.217929,510.447552
21.2209172,500.581737
21.2239053,489.666473
21.2283876,471.675353
21.2343639,445.49741
21.2507988,369.095948
21.2567752,342.156936
21.2627515,316.497534
21.2657397,304.236805
21.271716,280.955773
21.2765718,263.300237
21.2821746,244.339618
21.2859098,232.523415
21.289645,221.346082
21.2933802,210.785146
21.298983,196.043549
21.3027182,186.909071
21.3064534,178.296259
21.3120562,166.293305
21.3157914,158.861711
21.3195266,151.855083
21.3251295,142.086006
21.3307323,133.133646
21.3363351,124.922408
21.3419379,117.383066
21.3475407,110.452607
21.3531435,104.073926
21.3568787,100.102326
21.3624815,94.5311635
21.3680843,89.3852912
21.3755548,83.1188437
21.3830252,77.4578059
21.3867604,74.8317596
21.3942308,69.9487577
21.4017012,65.5108735
21.4054364,63.4429737
21.4129068,59.5811258
21.4203772,56.0512523
21.4278477,52.8178216
21.4353181,49.8497228
21.4427885,47.1196572
21.4502589,44.6036177
21.4577293,42.2804448
21.4651997,40.1314469
21.4726701,38.1400753
21.4801406,36.2916459
21.487611,34.5731011
21.4950814,32.9728038
21.5025518,31.4803617
21.5137574,29.4238485
21.5212278,28.1624251
21.5286983,26.9802632
21.5399039,25.3417979
21.5511095,23.8483454
