energy [eV],cross section [b]
1e-05,4517.86502
1.06226625e-05,4383.45528
1.15566564e-05,4202.59176
1.21793189e-05,4093.75479
1.28795232e-05,3980.92007
1.40461422e-05,3812.01728
1.48238882e-05,3710.67016
1.56016342e-05,3616.99909
1.70588172e-05,3459.0675
1.80302725e-05,3364.59181
1.90017278e-05,3277.4571
2.07008663e-05,3140.07022
2.25209826e-05,3010.5096
2.43410989e-05,2895.76728
2.5856728e-05,2809.61631
2.7372357e-05,2730.72366
2.96458006e-05,2623.93057
3.22967343e-05,2513.93889
3.41898536e-05,2443.34879
3.60829728e-05,2378.3896
3.7976092e-05,2318.35044
4.15230356e-05,2217.12304
4.38876646e-05,2156.56816
4.62522936e-05,2100.71855
4.89113958e-05,2042.81751
5.18649711e-05,1983.79884
5.62953342e-05,1904.13903
6.10935134e-05,1827.83703
6.66273249e-05,1750.28603
7.21611364e-05,1681.83631
7.63097704e-05,1635.48091
8.09178306e-05,1588.23074
8.7829921e-05,1524.45534
9.24379812e-05,1485.97289
9.81937481e-05,1441.76472
0.000103949515,1401.28115
0.000109705282,1364.02694
0.000115461049,1329.59437
0.000122650376,1290.03866
0.000129839703,1253.81558
0.00013702903,1220.48199
0.000148708325,1171.57591
0.00016217823,1121.86931
0.000175648136,1077.99623
0.000191354629,1032.80915
0.000208179417,990.196205
0.000225004204,952.457097
0.000239014373,924.121808
0.000253024542,898.173823
0.000274039796,863.049358
0.000289794686,839.262451
0.000307294298,815.016428
0.00032479391,792.757366
0.000342293522,772.227915
0.000372901481,739.858815
0.000394759635,719.085119
0.000416617788,699.968556
0.000452127068,671.921322
0.00049308045,643.415053
0.000534033832,618.254314
0.00058178725,592.34007
0.000615889541,575.708962
0.000667042977,553.196325
0.000705392112,537.950402
0.00074798809,522.410245
0.000811882058,501.435169
0.000854478037,488.778733
0.000907683184,474.239224
0.000960888331,460.924739
0.00101409348,448.672391
0.00106729862,437.348084
0.00113375531,424.338916
0.00123344034,406.833724
0.00133312537,391.330785
0.00145763846,374.247547
0.00158215155,359.223048
0.00171700192,344.832004
0.00182068521,334.872247
0.00197621015,321.429309
0.00214464703,308.55318
0.0022741542,299.641886
0.00240366138,291.460947
0.00259792214,280.356582
0.00275968502,272.019309
0.0029214479,264.38456
0.00308321078,257.358919
0.00324497366,250.865485
0.00354805219,239.91761
0.00385113072,230.289227
0.00417937134,221.066931
0.00455793614,211.693937
0.00493650093,203.421196
0.00537792389,194.900958
0.00569315858,189.433035
0.00616601062,182.031612
0.00652050228,177.019399
0.00691425091,171.910593
0.00750487385,165.015309
0.00789862247,160.854819
0.00839044011,156.075469
0.00888225775,151.69896
0.00937407538,147.671721
0.0101730491,141.763376
0.0110945174,135.758733
0.0117088296,132.155981
0.0123231418,128.826269
0.0134741157,123.212698
0.0146250895,118.276047
0.0158716191,113.547946
0.0168300465,110.275986
0.0177884739,107.272396
0.0192261151,103.195829
0.0204232532,100.13539
0.0216203914,97.3330709
0.0228175296,94.7545451
0.0243360008,91.7620799
0.0264739704,87.9941217
0.0276479407,86.1138869
0.0299958814,82.690683
0.0327974782,79.0980953
0.0346652094,76.9494068
0.0365329405,74.9679853
0.0397997238,71.8445062
0.0432991003,68.8997906
0.045632018,67.1282072
0.0489967576,64.8000504
0.0533933192,62.097103
0.0570229701,60.1061072
0.0620940731,57.6233422
0.0657338059,56.0219781
0.0693735388,54.5488138
0.0730132716,53.1876541
0.079832666,50.8937352
0.0843789289,49.5221809
0.0889251919,48.257702
0.0940376123,46.9473315
0.0997161903,45.6123019
0.108234057,43.8114859
0.117459092,42.087942
0.128098462,40.3377473
0.138737831,38.7944471
0.148686191,37.5051553
0.161489997,36.0260736
0.172807113,34.8593742
0.183255378,33.8806698
0.194321482,32.9323898
0.205387585,32.0627495
0.221986741,30.883914
0.242720165,29.5872909
0.256542448,28.8129987
0.270364731,28.0998768
0.296728048,26.883101
0.313263896,26.2011477
0.329799744,25.5722641
0.357874819,24.6084416
0.3924925,23.5691185
0.422569879,22.7748015
0.450644954,22.1086044
0.486743518,21.3412082
0.522566461,20.6627371
0.559528366,20.0350925
0.597904855,19.4489553
0.631549811,18.9819747
0.674919943,18.4352838
0.702156671,18.1197897
0.757468475,17.5358697
0.8416937,16.768236
0.898506445,16.317923
0.953994,15.9214494
1.0529854,15.302417
1.12244445,14.9242438
1.23474475,14.3920342
1.31524723,14.060691
1.45934535,13.5520002
1.57164565,13.2173025
1.68394595,12.9269655
1.79624625,12.6742544
1.90854655,12.453874
2.05200062,12.2127794
2.1892973,12.0186946
2.35774775,11.8227738
2.48127808,11.7053016
2.6384985,11.5851945
2.79571892,11.4985029
2.89678919,11.4656803
2.9753994,11.4637444
3.03154955,11.4924026
3.07646967,11.562128
3.10454475,11.6550928
3.12700481,11.7841276
3.14834186,11.9791008
3.18427796,12.4283677
3.19213898,12.4911342
3.1994385,12.5136539
3.20673802,12.4971158
3.21572204,12.4281928
3.25165814,11.9711814
3.2729952,11.7683532
3.30107027,11.6047263
3.33476036,11.4976667
3.3852955,11.4190836
3.45267568,11.374213
3.54813093,11.3529014
3.67166126,11.3548085
3.8738018,11.3941288
4.0984024,11.4750236
4.323003,11.5899415
4.5476036,11.7373118
4.7722042,11.9168332
4.9968048,12.1288983
5.2214054,12.3744255
5.50215615,12.7305508
5.83905705,13.2351637
6.17595795,13.8324058
6.51285885,14.5338064
6.6813093,14.9280615
6.9059099,15.5038011
7.07436035,15.9764715
7.2428108,16.4874096
7.41126125,17.0399402
7.5797117,17.6378227
7.74235422,18.2621135
7.9166126,18.9872476
8.08506305,19.7491163
8.30966365,20.8691317
8.42196395,21.4786257
8.5904144,22.4616554
8.7513536,23.485763
8.8679,24.284604
9.0069,25.3065132
9.1591,26.5205376
9.3113,27.8452932
9.4635,29.294243
9.6157,30.8830043
9.78879225,32.8830291
9.9201,34.5558661
10.0723,36.6863524
10.2245,39.0509119
10.3767,41.6848713
10.5289,44.6305504
10.605,46.2358379
10.71915,48.8297734
10.79525,50.6952064
10.87135,52.6804427
10.94745,54.7959715
11.02355,57.0534617
11.09965,59.4659258
11.17575,62.0479091
11.25185,64.8157128
11.366,69.3565261
11.4421,72.6741983
11.5182,76.2527786
11.5943,80.1204576
11.63235,82.1725745
11.70845,86.5355276
11.78455,91.2767451
11.8226,93.8030694
11.8987,99.1985619
11.9748,105.0988
12.01285,108.258181
12.08895,115.041171
12.1424399,120.215759
12.1882099,124.938189
12.2185399,128.229005
12.2792,135.229614
12.32486,140.899695
12.36291,145.912196
12.40857,152.3017
12.46184,160.320712
12.49228,165.20041
12.55316,175.675827
12.61404,187.213611
12.67492,199.962771
12.72058,210.424341
12.78146,225.736748
12.8119,234.043739
12.84234,242.82912
12.87278,252.130376
12.90322,261.988733
12.93366,272.449611
12.9641,283.563144
12.99454,295.384782
13.02498,307.975976
13.05542,321.404972
13.08586,335.747732
13.1163,351.088998
13.14674,367.523535
13.17718,385.157578
13.20762,404.110536
13.23806,424.516987
13.28372,458.190169
13.31416,482.941179
13.3446,509.774433
13.38265,546.611915
13.4207,587.625528
13.45114,623.877282
13.46636,643.281437
13.4968,684.920885
13.51202,707.279341
13.54246,755.420274
13.55768,781.359006
13.58051,822.84842
13.59573,852.371918
13.61856,899.725869
13.64139,951.131529
13.66422,1007.05878
13.68705,1068.04657
13.70988,1134.7152
13.73271,1207.78121
13.75554,1288.07551
13.77837,1376.56541
13.8012,1474.38169
13.82403,1582.85193
13.83925,1661.84617
13.85447,1746.79824
13.8773,1886.725
13.89252,1989.35256
13.90774,2100.37976
13.92296,2220.71625
13.93818,2351.39272
13.9534,2493.57968
13.96862,2648.6093
13.98384,2818.0011
13.99906,3003.49194
14.01428,3207.07103
14.0295,3431.02079
14.04472,3677.9642
14.05233,3810.98461
14.06755,4098.2179
14.07516,4253.36219
14.086575,4501.93174
14.094185,4679.03778
14.1056,4963.3286
14.11321,5166.25772
14.124625,5492.58505
14.13604,5847.64002
14.147455,6234.38093
14.15887,6656.04897
14.170285,7116.17069
14.1817,7618.54677
14.193115,8167.22001
14.20453,8766.41257
14.21214,9196.06313
14.21975,9651.33576
14.22736,10133.4411
14.23497,10643.5026
14.24258,11182.5072
14.25019,11751.2433
14.263888,12851.3026
14.269976,13371.706
14.282152,14468.7353
14.28824,15043.7407
14.300416,16239.9262
14.343032,20612.3
14.355208,21762.909
14.36434,22539.2008
14.370428,23001.8902
14.376516,23412.398
14.382604,23764.0315
14.388692,24050.7529
14.397824,24348.18
14.403912,24452.6256
14.4096956,24479.9535
14.416088,24428.0486
14.422176,24299.3958
14.428264,24095.856
14.434352,23821.1465
14.44044,23480.1555
14.446528,23078.7308
14.452616,22623.4415
14.458704,22121.3292
14.467836,21296.2799
14.480012,20099.7089
14.513496,16623.1763
14.525672,15401.0142
14.537848,14238.1736
14.543936,13682.919
14.556112,12629.1867
14.5622,12131.5685
14.573615,11251.4648
14.581225,10702.5832
14.59264,9934.21113
14.604055,9228.72916
14.61547,8582.14233
14.626885,7990.15624
14.6383,7448.41587
14.649715,6952.66399
14.66113,6498.84062
14.672545,6083.14036
14.68396,5702.04053
14.695375,5352.30946
14.70679,5031.00198
14.7144,4831.25796
14.725815,4551.51455
14.733425,4377.29376
14.74484,4132.84477
14.75245,3980.31634
14.76767,3698.02082
14.77528,3567.33121
14.7905,3324.79426
14.80572,3104.93673
14.82094,2905.16432
14.83616,2723.2206
14.85138,2557.13976
14.8666,2405.20601
14.88182,2265.91875
14.89704,2137.96278
14.91226,2020.18284
14.92748,1911.56194
14.9427,1811.20275
14.96553,1674.44385
14.98075,1591.46145
14.99597,1514.33323
15.0188,1408.48442
15.04163,1313.09685
15.06446,1226.86303
15.08729,1148.66965
15.11012,1077.56464
15.13295,1012.73046
15.14817,972.639335
15.171,916.737754
15.1937112,865.686817
15.21666,818.235654
15.23188,788.845636
15.26232,734.543418
15.27754,709.434395
15.30798,662.866582
15.33842,620.664459
15.35364,601.033838
15.38408,564.422848
15.41452,531.006355
15.42974,515.382307
15.46018,486.102425
15.49062,459.211115
15.52106,434.457727
15.5515,411.623418
15.58194,390.51646
15.61238,370.968328
15.64282,352.830431
15.67326,335.971365
15.7037,320.274592
15.73414,305.636477
15.76458,291.964621
15.79502,279.176438
15.82546,267.19793
15.87112,250.604795
15.91678,235.488431
15.96244,221.679823
16.0081,209.033356
16.05376,197.423045
16.09942,186.739454
16.14508,176.887163
16.20596,164.901088
16.2364,159.352675
16.29728,149.051367
16.32772,144.265345
16.37338,137.500386
16.41143,132.214036
16.45709,126.256769
16.49514,121.589603
16.5408,116.317179
16.57885,112.176746
16.65495,104.521995
16.73105,97.6123359
16.80715,91.354746
16.8452,88.4453139
16.9213,83.0214085
16.9974,78.0731435
17.0735,73.5468726
17.11155,71.427258
17.18765,67.4490986
17.26375,63.7883883
17.33985,60.4124763
17.3779,58.8222482
17.49205,54.4042353
17.6062,50.4571384
17.72035,46.9168302
17.8345,43.7296994
17.94865,40.8506518
18.02475,39.0833594
18.1389,36.635872
18.215,35.1272448
18.32915,33.0298419
18.40525,31.7321523
18.5194,29.9216456
18.5955,28.7976455
18.6716,27.7345181
18.7477,26.7279882
18.8238,25.7741477
18.9682794,24.0956575
19.1282,22.4184051
19.2804,20.9764741
19.4326,19.666598
19.5848,18.4732901
19.737,17.3832584
19.8892,16.3850433
20.0414,15.4687238
20.1936,14.6256767
20.3458,13.8483786
20.498,13.1302423
20.6502,12.4654808
20.8785,11.5574236
21.0307,11.0050574
21.1829,10.490631
21.4112,9.78289107
21.6395,9.14320533
21.8678,8.5632254
22.0961,8.03583752
22.3244,7.55495045
22.5527,7.11532472
22.781,6.71243411
23.0093,6.34235271
23.1615,6.11215257
23.3898,5.7893726
23.6173071,5.49220847
23.8464,5.21526898
23.9986,5.04259165
24.303,4.72179763
24.4552,4.5726767
24.6835,4.36182282
24.9118,4.16515767
25.064,4.04132137
25.3684,3.80963436
25.6728,3.59732216
25.825,3.49777771
26.1294,3.31075405
26.4338,3.13844569
26.7382,2.97938597
27.0426,2.83228652
27.347,2.69601213
27.6514,2.56955966
27.9558,2.45204029
28.2602,2.34266442
28.5646,2.24072894
29.0212,2.10042217
29.3074078,2.01946164
29.5936157,1.94340194
30.205,1.79572915
30.73812,1.68154645
31.2264,1.58740571
31.7272,1.50007068
32.25304,1.41736946
32.7288,1.34971535
33.2296,1.28519406
33.7304,1.22698088
34.2312,1.17461343
34.732,1.12772796
35.2328,1.08605634
35.4832,1.06711828
35.984,1.03297824
36.2344,1.01777303
36.7352,0.991141921
37.100175,0.974998528
37.4864,0.961067316
37.9872,0.948200287
38.4254,0.942283618
38.801,0.941730069
39.1766,0.945984849
39.5522,0.95586818
39.8652,0.96919104
40.1156,0.98377204
40.2408,0.992550787
40.4912,1.01348701
40.6164,1.0258346
40.8668,1.05485442
40.992,1.07179671
41.1798,1.10070025
41.305,1.12257298
41.4302,1.14678513
41.618,1.18805844
41.7432,1.21932049
41.8684,1.25399583
41.9936,1.29250488
42.1188,1.33533703
42.244,1.3830646
42.3692,1.43636023
42.4944,1.4960187
42.6196,1.56298452
42.6822,1.59955223
42.8074,1.67966633
42.87,1.72358548
42.9326,1.77035989
43.0578,1.87345223
43.1517,1.96023202
43.2456,2.05636087
43.3395,2.16317144
43.4334,2.28224402
43.5273,2.41546375
43.6212,2.56509412
43.7151,2.73387177
43.809,2.92513045
43.8403,2.99456104
43.9029,3.14296444
43.9655,3.30540775
44.01245,3.4375275
44.0907,3.6799232
44.122,3.78552064
44.1846,4.01341754
44.2159,4.13650395
44.2785,4.40319132
44.3098,4.5478132
44.3724,4.86253799
44.41935,5.12355548
44.4663,5.40892446
44.51325,5.72175442
44.5602,6.06566766
44.60715,6.44490417
44.6541,6.86445245
44.70105,7.33021376
44.73235,7.66980916
44.76365,8.03544597
44.8106,8.63878787
44.82625,8.85610901
44.85755,9.31774294
44.8732,9.56305833
44.9045,10.0854622
44.9358,10.6544107
44.9671,11.2755902
44.98275,11.6077837
45.01405,12.3199753
45.04535,13.1029203
45.07665,13.9662916
45.10795,14.9214713
45.13612,15.8707088
45.16742,17.0395271
45.1862,17.8058973
45.19872,18.346752
45.22376,19.507283
45.23628,20.1304017
45.26132,21.4720446
45.27384,22.1949485
45.29888,23.7573346
45.3114,24.6024563
45.33018,25.9589954
45.3427,26.9278342
45.36148,28.4878921
45.38026,30.1898755
45.39904,32.0514751
45.41782,34.0932158
45.4366,36.3390165
45.45538,38.8168843
45.47416,41.5597774
45.49294,44.6066883
45.51172,48.0040117
45.5305,51.8072861
45.54302,54.6008259
45.55554,57.6274459
45.56806,60.9136292
45.57745,63.566684
45.58684,66.3971345
45.5931,68.3905051
45.60249,71.553169
45.61501,76.1227645
45.62753,81.1436638
45.64005,86.676678
45.65257,92.7930923
45.66509,99.5768781
45.67135,103.249412
45.68074,109.148314
45.687,113.363982
45.69326,117.826468
45.69952,122.555129
45.707345,128.872848
45.713605,134.281389
45.72143,141.528369
45.729255,149.36988
45.73708,157.871438
45.744905,167.107625
45.75273,177.163594
45.760555,188.136861
45.76838,200.139459
45.776205,213.300511
45.7809,221.814368
45.785595,230.834806
45.79342,247.104061
45.798115,257.679859
45.80281,268.927494
45.807505,280.902824
45.8122,293.667357
45.816895,307.288899
45.82159,321.842295
45.826285,337.410257
45.832545,359.905321
45.83724,378.213676
45.8435,404.76223
45.848195,426.447153
45.854455,458.007813
45.85915,483.881986
45.86541,521.681309
45.86854,542.137844
45.87167,563.725225
45.8748,586.51948
45.87793,610.602079
45.88106,636.060245
45.88419,662.987253
45.88732,691.482706
45.89045,721.652767
45.89358,753.610331
45.89671,787.47512
45.89984,823.37365
45.90297,861.439045
45.9061,901.810644
45.910795,967.010376
45.913925,1013.79085
45.91862,1089.31524
45.923315,1171.71956
45.92801,1261.48923
45.932705,1359.04454
45.935835,1428.56301
45.938652,1494.2458
45.94366,1618.28505
45.94992,1785.86703
45.95618,1965.47201
45.971204,2416.57825
45.976212,2558.30275
45.979968,2655.63283
45.982472,2714.6411
45.984976,2767.93579
45.98748,2814.68219
45.989984,2854.1057
45.992488,2885.52147
45.994992,2908.36257
45.997496,2922.20475
46.0,2926.78567
46.002504,2922.01717
46.005008,2907.98947
46.007512,2884.96688
46.010016,2853.37552
46.01252,2813.78394
46.015024,2766.8784
46.017528,2713.43464
46.020032,2654.28819
46.023788,2556.77242
46.028796,2414.84152
46.042568,2000.44967
46.05008,1783.70987
46.055088,1648.54471
46.057592,1584.23262
46.061348,1492.07014
46.064165,1426.39542
46.067295,1356.89021
46.07199,1259.36168
46.076685,1169.62512
46.08138,1087.25844
46.086075,1011.77482
46.089205,965.022688
46.0939,899.866568
46.09703,859.524455
46.101725,803.291825
46.104855,768.455935
46.107985,735.589497
46.111115,704.569292
46.114245,675.278944
46.117375,647.608885
46.120505,621.456212
46.123635,596.724484
46.126765,573.323459
46.129895,551.168812
46.133025,530.181818
46.136155,510.289045
46.14085,482.353073
46.14711,448.33417
46.15337,417.60253
46.15963,389.772978
46.16589,364.511036
46.1708766,346.029865
46.17528,330.806754
46.18154,310.772539
46.1878,292.441541
46.19093,283.857442
46.19719,267.749968
46.20032,260.189579
46.20658,245.971445
46.20971,239.283148
46.21597,226.678534
46.2191,220.736869
46.22849,204.217599
46.23475,194.191657
46.24414,180.455555
46.2504,172.077034
46.25979,160.543939
46.26605,153.477072
46.27544,143.707692
46.2817,137.696615
46.29109,129.354161
46.29735,124.201533
46.30674,117.024771
46.313,112.576664
46.31926,108.374855
46.32552,104.401721
46.33804,97.0784652
46.35056,90.4938198
46.36308,84.5526755
46.3756,79.1746071
46.38812,74.29126
46.40064,69.8442591
46.41316,65.7835246
46.42255,62.9652761
46.43194,60.3239007
46.44446,57.0525304
46.45698,54.0399164
46.4695,51.259636
46.48828,47.4749695
46.50706,44.0948598
46.52584,41.0639105
46.54462,38.3358504
46.5634,35.8717948
46.58218,33.6388802
46.5947,32.2647168
46.61348,30.3570293
46.63226,28.6147353
46.65104,27.0193154
46.66356,26.0293037
46.6886,24.2071903
46.70112,23.3677556
46.72616,21.8161004
46.7512,20.4157167
46.76372,19.7661956
46.78876,18.5580204
46.8138,17.4588672
46.84197,16.3368847
46.87014,15.3214443
46.89205,14.5968888
46.92335,13.6494437
46.95465,12.7931992
46.98595,12.0168302
47.0016,11.655534
47.0329,10.9813843
47.04855,10.6666321
47.07985,10.0775324
47.0955,9.80166759
47.1268,9.28390308
47.14245,9.04077918
47.17375,8.58328871
47.1894,8.36792577
47.23635,7.77003847
47.2833,7.23638395
47.33025,6.75808134
47.36155,6.46625835
47.4085,6.06436688
47.4398,5.8179466
47.48675,5.47701314
47.51805,5.26704023
47.565,4.975326
47.5963,4.79494701
47.6276,4.6248456
47.6589,4.4642544
47.7215,4.16887681
47.7528,4.03287755
47.8154,3.78161194
47.878,3.55496796
47.9406,3.34982217
48.0032,3.16353084
48.0658,2.99384428
48.1284,2.83883842
48.191,2.69685988
48.2536,2.56648156
48.3162,2.44646648
48.3788,2.33573818
48.4414,2.2333564
48.504,2.13849691
48.5666,2.05043474
48.6292,1.96853019
48.6918,1.89221708
48.7857,1.7871473
48.8483,1.72273289
48.9109,1.66237726
49.0048,1.57872383
49.13,1.47851336
49.1926,1.43269975
49.3178,1.34859351
49.443,1.27332068
49.5682,1.20566427
49.6308,1.17436852
49.756,1.11628771
49.8812,1.06358497
50.0064,1.01559986
50.069,0.993197468
50.2568,0.93161658
50.4446,0.877390118
50.6324,0.82935446
50.8202,0.786568396
51.008,0.748264003
51.1958,0.713809726
51.3836,0.682682318
51.634,0.645610171
51.7592,0.628732208
52.0096,0.597846241
52.26,0.570294168
52.4478,0.551517503
52.6356,0.534162519
52.8234,0.518078682
53.0112,0.503135345
53.199,0.489218684
53.3868,0.476229155
53.6685,0.458295037
53.8876,0.445491164
54.138,0.431943254
54.3884,0.419429334
54.6388,0.407838434
55.0144,0.391977338
55.5152,0.373270947
55.7656,0.364820669
56.2664,0.349469358
56.7672,0.33591064
57.268,0.323880588
57.7688,0.313172225
58.2696,0.303622455
58.7704,0.295102623
59.2712,0.287511648
59.74696,0.281088854
60.2728,0.27482125
60.7736,0.269619246
61.17424,0.265976578
61.9352,0.260300667
62.7224,0.256151213
63.5096,0.253840032
64.2968,0.253557747
64.8216,0.254650077
65.084,0.255628906
65.6088,0.25855981
66.1336,0.262973688
66.396,0.265823058
66.7896,0.27102316
67.052,0.275185522
67.3144,0.279978812
67.6424,0.286974869
67.8392,0.291776067
68.1344,0.299944733
68.3312,0.306113172
68.6264,0.316608023
68.8232,0.324542218
69.02,0.33332922
69.2824,0.346553334
69.5448,0.36177359
69.676,0.370242289
69.9384,0.389162553
70.1352,0.405338772
70.2664,0.41720879
70.3976,0.430050106
70.5944,0.451357767
70.7256,0.467099414
70.8568,0.484230383
70.988,0.502910247
71.1192,0.523322351
71.2504,0.545678194
71.3816,0.570222779
71.5128,0.597241189
71.5784,0.611780088
71.7096,0.643151933
71.8408,0.677944075
71.9702563,0.716117702
72.1032,0.759901764
72.2344,0.808388392
72.3656,0.86299049
72.4312,0.892907035
72.5296,0.941477901
72.5952,0.976577565
72.6608,1.0140826
72.7264,1.05421598
72.8248,1.1198981
72.9232,1.19303718
72.9888,1.24650566
73.0544,1.30420298
73.12,1.36658482
73.1856,1.43416995
73.2512,1.50755107
73.3168,1.58740778
