energy [eV],cross section [b]
1e-05,9561.48121
1.05819304e-05,9294.85613
1.11638609e-05,9049.35994
1.23277217e-05,8611.59414
1.34038032e-05,8258.68394
1.48385785e-05,7849.25772
1.60816478e-05,7539.79176
1.74082111e-05,7246.81931
1.87347744e-05,6985.5427
2.03701247e-05,6699.26865
2.14603583e-05,6526.88041
2.30957086e-05,6291.56005
2.44397182e-05,6116.11685
2.64557325e-05,5878.46306
2.84717469e-05,5666.52031
3.01286045e-05,5508.50629
3.17854621e-05,5363.01416
3.34423197e-05,5228.4729
3.50991773e-05,5103.57429
3.71417052e-05,4961.25793
4.02054971e-05,4768.47743
4.45282749e-05,4531.10499
4.83052323e-05,4350.35434
5.20821897e-05,4189.64053
5.64452609e-05,4024.45657
6.11013889e-05,3868.07626
6.57575169e-05,3728.61418
6.95841469e-05,3624.6381
7.5324092e-05,3483.79296
8.34227185e-05,3310.36889
8.81400815e-05,3220.56014
9.28574446e-05,3137.68505
0.000102841206,2981.48916
0.000111564357,2862.55143
0.000123195225,2724.06866
0.000133948882,2612.42887
0.000148287092,2482.91046
0.000160709518,2385.01337
0.000173966328,2292.33365
0.000187223138,2209.68047
0.000198118222,2148.05822
0.000209013306,2091.31915
0.000225355932,2014.05496
0.000237519053,1961.80347
0.000250950209,1908.57723
0.000277812522,1813.94953
0.000292806879,1766.88843
0.000309364435,1718.94937
0.000342479547,1633.72136
0.000371170019,1569.30114
0.000401787561,1508.31394
0.000432405103,1453.92445
0.000470149556,1394.33088
0.000507894009,1341.51005
0.000548567082,1290.80893
0.00057958729,1255.78307
0.000610607498,1223.46121
0.00065713781,1179.33958
0.000695378659,1146.4444
0.000752739932,1101.88446
0.000833672333,1047.01666
0.000904385715,1005.23616
0.000998670224,956.589162
0.00108584371,917.371069
0.0011730172,882.609716
0.00126695455,849.242984
0.0013744196,815.348347
0.00148188465,785.210406
0.00160602629,754.233489
0.00169434624,734.299364
0.00182682616,707.15362
0.00197986452,679.252044
0.00208874289,661.296857
0.00230649965,629.278337
0.00244072188,611.713872
0.00257494412,595.540872
0.00284338858,566.700211
0.00309158674,543.448739
0.00342251761,516.472133
0.00370923151,496.080507
0.00401520329,476.774528
0.00432117506,459.556139
0.00469836855,440.689096
0.00494983088,429.32703
0.00532702437,413.816147
0.00563702013,402.251196
0.00610201377,386.584203
0.00675808449,367.291134
0.00714023864,357.299051
0.00752239278,348.077706
0.0083311785,330.696075
0.009037842,317.458576
0.00998006,302.043263
0.0108512151,289.613773
0.0117223702,278.595058
0.0126611188,268.016714
0.0137350546,257.269097
0.0148089904,247.710877
0.015608275,241.24576
0.0164908871,234.658973
0.0178148052,225.710517
0.0186974173,220.279308
0.0197854769,214.089516
0.0208735365,208.389043
0.0219615961,203.116533
0.0236122418,195.822975
0.0247374139,191.274206
0.0260787436,186.239882
0.0276362307,180.859076
0.030068528,173.305014
0.0325488588,166.488061
0.0350291895,160.405836
0.0380868722,153.738346
0.0411445549,147.825389
0.0444394855,142.146549
0.0469524363,138.221444
0.049465387,134.597789
0.0532348132,129.648611
0.056332709,125.956578
0.0594306048,122.555346
0.0656263964,116.485687
0.0694453961,113.153413
0.0732643959,110.083328
0.0809023953,104.603922
0.0879643302,100.181641
0.0973802434,95.0449287
0.10553806,91.1574228
0.114243816,87.4728317
0.122949573,84.1830669
0.131970253,81.1203244
0.138503106,79.089712
0.14503596,77.1964291
0.155978938,74.2928883
0.164799188,72.1639581
0.173619439,70.1976099
0.182439689,68.374069
0.192286494,66.4867828
0.203159854,64.5625626
0.214033213,62.7853361
0.224906572,61.1372586
0.23704544,59.4316927
0.257152002,56.8745291
0.277258564,54.598479
0.300485292,52.2570907
0.317009832,50.7495137
0.341796643,48.6958158
0.363920856,47.0425998
0.391222822,45.1993488
0.418102865,43.5647841
0.444099284,42.1285396
0.469212078,40.8575529
0.494324872,39.6864398
0.519437666,38.603287
0.556527597,37.1436754
0.605594666,35.4306748
0.642977838,34.2659676
0.674909775,33.3535341
0.73215667,31.8812286
0.789403566,30.5873769
0.863976666,29.1225073
0.939576238,27.8475369
0.996678876,27.0019698
1.07173265,26.0215296
1.134819,25.2977014
1.18174849,24.8119159
1.2609917,24.0828656
1.32407805,23.576468
1.41870757,22.9266254
1.5133371,22.3953454
1.57709491,22.098442
1.70259615,21.6464358
1.81646895,21.3788747
1.8918552,21.2731451
2.0180279,21.2211881
2.08111425,21.2540987
2.20728695,21.4408477
2.30190049,21.6914422
2.396546,22.0436688
2.49117553,22.5058705
2.58580505,23.0892306
2.68043458,23.8080456
2.7750641,24.6804941
2.86947783,25.7269964
2.96432315,26.9846106
3.0274095,27.9536347
3.09049585,29.0439791
3.12203902,29.6395295
3.16619947,30.5352444
3.20405128,31.3652624
3.24190309,32.2579011
3.2797549,33.2186282
3.30498944,33.899931
3.35545852,35.3695566
3.38069306,36.162358
3.43116214,37.8765581
3.47732877,39.6111421
3.5321003,41.9045701
3.55733484,43.0575355
3.60780392,45.5693281
3.658273,48.3914034
3.69612481,50.7417212
3.73397662,53.3202208
3.77182843,56.156354
3.80968024,59.2845252
3.83491478,61.5518774
3.86014932,63.9805248
3.89800113,67.9599708
3.92323567,70.8631102
3.94847021,73.9900278
3.98632202,79.1516188
4.01155656,82.9464782
4.0367911,87.0610526
4.06202564,91.5318163
4.08726018,96.4005816
4.11249472,101.715457
4.13772926,107.532012
4.1629638,113.914692
4.18819834,120.938564
4.21343288,128.691464
4.23866742,137.276658
4.26390196,146.816173
4.2891365,157.45498
4.30175377,163.239468
4.31437104,169.366282
4.32698831,175.862588
4.34591422,186.366015
4.35853149,193.923484
4.37745739,206.187963
4.39007466,215.046333
4.40900056,229.480324
4.42161784,239.949383
4.44054374,257.083804
4.45316101,269.568622
4.47208692,290.102067
4.48470419,305.139033
4.49101282,313.103529
4.50363009,330.002725
4.50993872,338.9717
4.52255599,358.042485
4.52886463,368.185643
4.5414819,389.801278
4.54779053,401.323886
4.5604078,425.936985
4.56671644,439.088554
4.57933371,467.250631
4.58564235,482.335896
4.59825961,514.722049
4.60456825,532.114812
4.61718552,569.55476
4.62349415,589.715219
4.63611143,633.231912
4.64872869,681.484568
4.65503733,707.584803
4.66134596,735.118137
4.67080892,779.316607
4.67711755,810.866795
4.68342619,844.215979
4.68973482,879.485402
4.69604346,916.804338
4.70235209,956.310332
4.70866073,998.149346
4.71496936,1042.47578
4.721278,1089.45233
4.72758663,1139.24955
4.73389527,1192.04522
4.7402039,1248.02318
4.74651254,1307.37181
4.75282117,1370.28172
4.76228412,1471.73812
4.76859276,1544.37005
4.77805571,1661.22724
4.78751867,1787.98442
4.79887421,1953.55121
4.80896802,2113.00401
4.81906184,2283.3868
4.83420256,2556.10117
4.86196056,3075.37354
4.87205437,3252.27917
4.87962474,3373.35724
4.88467164,3446.52196
4.88971855,3512.37274
4.89476546,3569.86303
4.89981237,3618.02441
4.90485928,3656.004
4.90990618,3683.09983
4.91495309,3698.79165
4.92050469,3702.51211
4.92504691,3694.92557
4.93009382,3675.40512
4.93766418,3625.04598
4.94271109,3578.29576
4.94775799,3521.92557
4.9528049,3456.87496
4.95785181,3384.17568
4.96542217,3263.16811
4.97551599,3085.26477
5.00832089,2464.23227
5.02093816,2236.4221
5.03355543,2024.23687
5.04364925,1867.40246
5.05405849,1718.16861
5.06352145,1593.40508
5.0729844,1478.64411
5.08244735,1373.3528
5.09033314,1292.39724
5.09821894,1217.20595
5.10610473,1147.3936
5.11399053,1082.5808
5.12187632,1022.40093
5.12818496,977.357277
5.13607075,924.649388
5.14237938,885.165241
5.15026518,838.916302
5.15657381,804.231097
5.16288245,771.460571
5.16919108,740.482313
5.17549972,711.181849
5.18180835,683.452265
5.18811699,657.193803
5.19442562,632.313453
5.20704289,586.346338
5.21650585,554.886053
5.22912312,516.517122
5.23858607,490.15805
5.25120334,457.891506
5.26066629,435.643107
5.27328356,408.311001
5.2795922,395.560118
5.29220947,371.720759
5.2985181,360.57161
5.30482673,349.898948
5.31640229,331.470996
5.32375264,320.49119
5.33636991,302.83906
5.34898718,286.56687
5.35529581,278.90521
5.36791308,264.453523
5.37422172,257.635309
5.38683899,244.749729
5.40576489,227.126669
5.41838216,216.395766
5.43730807,201.648979
5.44992534,192.627618
5.46885124,180.175758
5.48146851,172.525934
5.49408578,165.348354
5.50670306,158.605673
5.52562896,149.234046
5.53824623,143.437605
5.5508635,137.970898
5.56348077,132.809796
5.57609804,127.932305
5.58871531,123.318344
5.61394985,114.809134
5.63918439,107.152997
5.66441893,100.241074
5.68965347,93.9811406
5.70227074,91.0706661
5.72750528,85.6451257
5.75273982,80.6959658
5.77166573,77.2642093
5.79059163,74.0502675
5.81582617,70.0732382
5.84106071,66.4144003
5.86629525,63.0410269
5.87891252,61.4522916
5.91676433,57.0395213
5.95461614,53.0985915
5.99246795,49.5651111
6.03031976,46.3852379
6.06817157,43.5136816
6.09340611,41.751432
6.13125792,39.3114809
6.16910973,37.0899328
6.20696154,35.0616577
6.23219608,33.8060375
6.27004789,32.0532686
6.3078997,30.4423515
6.35836878,28.489798
6.40883786,26.7332592
6.4340724,25.9204448
6.48454148,24.411851
6.53501056,23.0432842
6.579171,21.9474451
6.63594872,20.6617496
6.6864178,19.6221709
6.74950415,18.4426294
6.8125905,17.3799813
6.87567685,16.4193356
6.90722002,15.9732484
6.97030637,15.1425824
7.03339273,14.3858417
7.09647907,13.6945392
7.12802225,13.3711036
7.22265177,12.4800158
7.3172813,11.6933469
7.41191082,10.9954606
7.50654035,10.3735412
7.60116988,9.81700539
7.6957994,9.31705343
7.79042893,8.86632072
7.88505845,8.45860677
8.01123115,7.97294775
8.07948133,7.73452712
8.2004902,7.34843193
8.26357655,7.16387914
8.3266629,6.98970038
8.4528356,6.66955491
8.51592195,6.52229238
8.64209465,6.25055822
8.705181,6.12509599
8.8313537,5.89280347
9.02061275,5.58540957
9.2098718,5.31986614
9.39913085,5.08944232
9.52530355,4.95263607
9.65147625,4.82770141
9.83736118,4.66287404
10.0930807,4.46853849
10.2192534,4.38469142
10.4715988,4.23763075
10.5977715,4.17335058
10.8501169,4.0610603
11.1024623,3.96803931
11.3548077,3.89190401
11.7333258,3.80531429
11.9856712,3.76390548
12.2380166,3.73426348
12.6165347,3.71008836
12.9950528,3.70852792
13.3735709,3.72835906
13.6259163,3.75316849
13.8782617,3.78721836
14.2567798,3.85587398
14.5091252,3.91372009
14.71,3.96696192
15.12829,4.09951302
15.5031584,4.24530554
15.8780268,4.41968188
16.1591781,4.571515
16.3466123,4.68385889
16.5340465,4.80591089
16.7214807,4.93847087
16.9089149,5.08244637
17.0963491,5.23886819
17.2837833,5.40890897
17.4712175,5.59390537
17.6586517,5.79538449
17.939803,6.13240525
18.1272372,6.38332774
18.3146714,6.65810118
18.5811201,7.09552634
18.7832569,7.46952925
18.876974,7.65687978
19.0644082,8.06118554
19.1581253,8.27950236
19.3455595,8.75233711
19.4392766,9.00862135
19.6267108,9.56598309
19.7204279,9.86938459
19.9078621,10.532338
20.0484378,11.0848819
20.1890134,11.6917259
20.329589,12.3602005
20.4233061,12.8442868
20.5170233,13.3624961
20.6575989,14.2110897
20.751316,14.8298946
20.8450331,15.4962518
20.9856088,16.5961029
21.0793259,17.4048079
21.1730429,18.2818651
21.2199015,18.7484692
21.3136186,19.7433482
21.3604771,20.2740796
21.4541943,21.4089805
21.5244821,22.330508
21.5947699,23.3188472
21.688487,24.752179
21.7822041,26.3343932
21.8290627,27.1878929
21.9227798,29.0349086
22.0164968,31.0923106
22.0867847,32.7932621
22.1570725,34.6477439
22.2039311,35.9786898
22.2507896,37.3927217
22.2976482,38.8969324
22.3445067,40.4991888
22.3913652,42.2082366
22.4382238,44.0338197
22.5085116,47.0148553
22.5553702,49.1822889
22.6022287,51.5104727
22.6490873,54.0157607
22.6959458,56.7166424
22.7428044,59.6340867
22.7896629,62.7919511
22.8365215,66.217473
22.88338,69.9418607
22.9302386,74.0010082
22.9770971,78.4363651
23.0263319,83.5547227
23.0716063,88.7306686
23.1176728,94.52165
23.1645313,101.03033
23.206704,107.495818
23.239505,112.974012
23.2676201,118.01759
23.2910494,122.488742
23.3191645,128.204835
23.337908,132.245203
23.3753948,140.932168
23.3941382,145.606095
23.4316251,155.692127
23.4691119,166.881832
23.497227,176.097678
23.5253422,186.109772
23.5440856,193.272875
23.562829,200.862877
23.5909441,213.124855
23.6096876,221.941165
23.628431,231.321859
23.6565461,246.560005
23.6752895,257.578586
23.6940329,269.358853
23.7127764,281.972427
23.7315198,295.499513
23.7502632,310.030154
23.7690066,325.665708
23.78775,342.520586
23.8064935,360.724312
23.8252369,380.423964
23.8439803,401.78709
23.8627237,425.005194
23.8814671,450.297935
23.9002106,477.918195
23.918954,508.158244
23.9376974,541.357255
23.9470691,559.187417
23.9658125,597.586652
23.984556,640.064006
23.9939277,663.012857
24.0079852,699.807082
24.0173569,726.053301
24.0314145,768.258356
24.0454721,814.220404
24.0595296,864.391985
24.0689013,900.432673
24.0829589,958.818858
24.0970165,1022.99449
24.111074,1093.73518
24.1251316,1171.94771
24.1391892,1258.69679
24.1532467,1355.23809
24.1626184,1425.7628
24.1719901,1501.80342
24.176676,1542.06828
24.1860477,1627.4782
24.1954194,1719.97543
24.2047911,1820.3367
24.209477,1873.7372
24.2188487,1987.58371
24.2282204,2111.72927
24.2375921,2247.39351
24.2469638,2395.97061
24.2563355,2559.05752
24.2657072,2738.48678
24.275079,2936.36465
24.2844507,3155.11516
24.2891365,3273.17425
24.2961653,3462.19837
24.3008512,3596.78875
24.3078799,3812.69163
24.3125658,3966.70747
24.3195946,4214.22742
24.3242804,4391.11148
24.3313092,4675.87066
24.3359951,4879.69397
24.3430239,5208.30908
24.3477097,5443.83372
24.3547385,5823.98148
24.3617673,6239.16394
24.3687961,6692.7007
24.3758248,7188.03732
24.3805107,7543.20203
24.3851966,7919.49696
24.3922253,8525.62648
24.3969112,8958.72766
24.401597,9415.8278
24.4100316,10300.3015
24.4137803,10718.8883
24.4212776,11601.6816
24.4250263,12064.6309
24.4325237,13028.2937
24.4587645,16560.3356
24.4662618,17493.9039
24.4718849,18125.5891
24.4756336,18503.1545
24.4793822,18839.1482
24.4831309,19128.135
24.4868796,19365.1916
24.4925026,19614.4256
24.4962513,19705.1996
24.4998126,19733.5709
24.5037487,19698.7363
24.5074974,19601.5934
24.5112461,19443.8799
24.5149947,19228.5041
24.5187434,18959.3299
24.5224921,18641.0092
24.5262408,18278.791
24.5299895,17878.3213
24.5356125,17218.6936
24.5431099,16259.5956
24.5637276,13463.2215
24.571225,12477.8714
24.5787224,11539.5447
24.5862197,10657.9523
24.5937171,9838.01841
24.6007459,9126.61228
24.6077747,8469.83315
24.6148034,7865.60047
24.6194893,7490.57765
24.6241752,7136.67822
24.628861,6802.88732
24.6335469,6488.16873
24.6382327,6191.48564
24.6429186,5911.81638
24.6476044,5648.16591
24.6522903,5399.57402
24.6569761,5165.12079
24.661662,4943.9301
24.6663479,4735.17143
24.6710337,4538.06052
24.6757196,4351.85906
24.6804054,4175.87375
24.6874342,3929.64135
24.6921201,3776.44496
24.6968059,3631.36944
24.7038347,3427.8721
24.7108635,3239.91786
24.7178923,3066.08111
24.724921,2905.07998
24.7296069,2804.30275
24.7389786,2617.09078
24.7436645,2530.0938
24.7530362,2368.05207
24.757722,2292.5514
24.7670937,2151.56227
24.7717796,2085.70273
24.7811513,1962.41513
24.7858372,1904.68374
24.7952089,1796.35869
24.8045806,1696.73304
24.8092664,1649.90405
24.8186381,1561.71539
24.8280099,1480.22322
24.8326957,1441.78452
24.8420674,1369.15534
24.8514391,1301.74997
24.8608108,1239.09112
24.8748684,1153.08473
24.8842401,1100.52924
24.8936118,1051.41857
24.9029835,1005.46383
24.9123552,962.405205
24.921727,922.008589
24.9310987,884.062641
24.9404704,848.376233
24.9498421,814.776216
24.9592138,783.105461
24.9732714,738.907794
24.9826431,711.462935
24.9920148,685.500537
25.0060723,649.112477
25.0248158,604.888471
25.0388733,574.59103
25.0529309,546.492801
25.0716743,512.09736
25.0904177,480.823947
25.0997894,466.242317
25.1185329,438.986701
25.1279046,426.240278
25.146648,402.347736
25.1560197,391.143241
25.1747631,370.086301
25.1841348,360.186407
25.2028783,341.536464
25.2309934,316.153551
25.2497368,300.766038
25.2778519,279.702296
25.2965954,266.862431
25.3247105,249.195744
25.3434539,238.373469
25.371569,223.414302
25.3903124,214.210037
25.4184276,201.434685
25.437171,193.542734
25.4559144,186.106159
25.4746578,179.090758
25.4934013,172.465474
25.5121447,166.202049
25.5496315,154.660005
25.5871184,144.284175
25.6246052,134.923265
25.662092,126.449681
25.6995789,118.755217
25.7323799,112.588832
25.7745526,105.347914
25.8026677,100.905771
25.8354687,96.07336
25.8706126,91.2757662
25.9057565,86.8335215
25.9409004,82.712563
25.9643297,80.1287461
25.9994736,76.4781247
26.0229029,74.1838157
26.0580468,70.9349719
26.0814761,68.8887219
26.1400493,64.1526371
26.1986224,59.900043
26.2571956,56.0677394
26.3040542,53.2684597
26.3626274,50.064112
26.4094859,47.7117477
26.4680591,45.0063277
26.5149177,43.0113446
26.5617762,41.1522724
26.6086348,39.4171839
26.6554933,37.7954316
26.7023518,36.2774872
26.7492104,34.8548035
26.7960689,33.5196955
26.8429275,32.2652387
26.8897861,31.0851805
26.9366446,29.9738634
26.9835032,28.9261591
27.0655056,27.2319724
27.1475081,25.6965643
27.2295105,24.3012006
27.311513,23.0298432
27.3935155,21.868699
27.4755179,20.8058545
27.5458057,19.9652143
27.6278082,19.0585348
27.698096,18.339102
27.7800985,17.5608416
27.8503863,16.9415908
27.9323888,16.2699927
28.0026766,15.7343467
28.0846791,15.1521685
28.1549669,14.6869252
28.2252547,14.2504636
28.3034994,13.7959615
28.4478328,13.0361478
28.6001231,12.3323166
28.7406988,11.7604724
28.9047037,11.1758944
29.0452793,10.7373752
29.185855,10.3502507
29.3264307,10.0094993
29.4670063,9.71089287
29.607582,9.45087752
29.7481576,9.22647915
29.8887333,9.03522728
30.0293089,8.87509449
30.1698845,8.74444865
30.3104602,8.64201595
30.45,8.56730907
30.6388169,8.50794147
30.8217116,8.49563836
31.0046063,8.52804439
31.187501,8.60625597
31.3703958,8.73229069
31.5532904,8.90918373
31.7361851,9.14113213
31.8733562,9.35451112
32.0562509,9.69716878
32.1476982,9.89581965
32.2391456,10.1143655
32.3305929,10.3542714
32.4220403,10.6171914
32.5592113,11.0588778
32.6963823,11.5639876
32.7878297,11.9402876
32.879277,12.3517834
32.9707244,12.8019935
33.0621717,13.2949376
33.1536191,13.835221
33.2450664,14.4281368
33.2907901,14.7462039
33.3822374,15.4298082
33.4279611,15.7972459
33.5194085,16.5887192
33.5651321,17.0151474
33.6565795,17.936128
33.7480269,18.9583078
33.8394742,20.0961044
33.8851979,20.7135913
33.9766452,22.0579592
34.0680926,23.5673126
34.1138162,24.3921203
34.1595399,25.268769
34.2281254,26.69051
34.2738491,27.7166712
34.3195728,28.8119365
34.3881583,30.5982051
34.433882,31.8950449
34.4796056,33.2861352
34.5481912,35.5699815
34.5939148,37.239642
34.6396385,39.0413178
34.708224,42.0228314
34.7539477,44.2207948
34.7996714,46.6095665
34.8453951,49.2117249
34.8911187,52.0532925
34.9368424,55.1643858
34.9765784,58.1140126
35.0282897,62.3410527
35.0740134,66.495486
35.1197371,71.0999158
35.1380266,73.0823231
35.1700331,76.7650583
35.1974673,80.1566265
35.2203292,83.1639942
35.2477634,87.0096354
35.2660529,89.7284548
35.2843423,92.5807753
35.3209213,98.7221008
35.3392107,102.031138
35.3757897,109.182734
35.3940791,113.051086
35.4306581,121.446478
35.4580923,128.386427
35.4855265,135.951259
35.5129607,144.218034
35.5403949,153.276026
35.5678291,163.229111
35.5952633,174.19872
35.6226975,186.327501
35.640987,195.1393
35.6592765,204.59794
35.6867107,220.142167
35.7050001,231.51868
35.7232896,243.806802
35.7415791,257.105973
35.7598686,271.529479
35.778158,287.206803
35.7964475,304.286473
35.814737,322.939486
35.8330264,343.363477
35.8513159,365.787803
35.8696054,390.479789
35.8878948,417.752429
35.9061843,447.973956
35.915329,464.32361
35.9290461,490.568648
35.9381909,509.312908
35.951908,539.493514
35.9610527,561.116179
35.9747698,596.046679
35.9839146,621.157775
35.9976317,661.870114
36.0067764,691.246631
36.0204935,739.06226
36.0342106,791.931019
36.0479277,850.573111
36.0616448,915.837957
36.0753619,988.732027
36.0799343,1014.92623
36.089079,1070.45358
36.0936514,1099.89579
36.1027961,1162.43624
36.1073685,1195.66571
36.1165132,1266.40378
36.1210856,1304.07107
36.1302303,1384.43937
36.1348027,1427.33324
36.1439474,1519.07312
36.1530922,1619.54808
36.1622369,1729.83863
36.1668093,1789.04531
36.175954,1916.44085
36.1850987,2057.10828
36.1942435,2212.80781
36.2033882,2385.56736
36.2079606,2479.06143
36.2148191,2629.09908
36.2193915,2736.17072
36.2239639,2849.32518
36.2285362,2968.97457
36.2353948,3161.598
36.2399671,3299.47602
36.2445395,3445.52104
36.2491119,3600.27981
