energy [eV],cross section [b]
1e-05,1384.57134
1.06596205e-05,1341.04846
1.1319241e-05,1301.38769
1.19788615e-05,1265.04967
1.2638482e-05,1231.59495
1.38889723e-05,1174.84428
1.51394626e-05,1125.27881
1.64999328e-05,1077.88963
1.80803627e-05,1029.70263
1.96607926e-05,987.449495
2.08534104e-05,958.79744
2.2185026e-05,929.577168
2.41824495e-05,890.359277
2.55140652e-05,866.813391
2.71970253e-05,839.565824
2.88799853e-05,814.73614
3.05629454e-05,791.986673
3.22459055e-05,771.042292
3.43729115e-05,746.805216
3.64999176e-05,724.71888
3.86269236e-05,704.482925
4.2098036e-05,674.81486
4.61303552e-05,644.647323
5.01626744e-05,618.194689
5.49042736e-05,590.898065
5.83017665e-05,573.422605
6.33980059e-05,549.892635
6.72437099e-05,533.93685
7.15376252e-05,517.664637
7.79784981e-05,495.824942
8.22724134e-05,482.712687
8.76992705e-05,467.539039
9.31261276e-05,453.711864
9.85529847e-05,441.043123
0.000107409204,422.469401
0.000117697289,403.582986
0.000127985374,387.022291
0.000140083122,369.933218
0.0001530857,353.874293
0.000166088278,339.740191
0.000177043802,329.060787
0.000187999325,319.329049
0.00020443261,306.225675
0.000223756491,292.704234
0.000237602609,284.047728
0.000251448728,276.116462
0.000265294846,268.814513
0.000291543935,256.427915
0.000309043327,249.062158
0.000326542719,242.296731
0.00035740899,231.598126
0.000390583853,221.544449
0.000423758716,212.695809
0.000465686707,202.895136
0.000493638701,197.067115
0.000535566692,189.196146
0.000570893769,183.249024
0.000623884385,175.294243
0.000659211462,170.532671
0.000699199033,165.584567
0.000743847096,160.538337
0.000788495159,155.927031
0.000833143222,151.691563
0.000883681441,147.290172
0.000968324002,140.705775
0.00105296656,134.932207
0.00115249765,128.974439
0.001259473,123.375822
0.00136644835,118.448266
0.00145658208,114.725125
0.00154671582,111.332373
0.00168191642,106.764186
0.00178394097,103.666484
0.00189785633,100.507358
0.00201177169,97.6205166
0.00212568705,94.968967
0.00225463059,92.2135498
0.00239860231,89.4034976
0.00254257403,86.8356455
0.00268654576,84.4770887
0.00294049002,80.7473692
0.00321342762,77.242506
0.00348636523,74.157759
0.00383131693,70.7411504
0.00417626863,67.7571499
0.00455155862,64.9042015
0.00484220301,62.9265874
0.0051328474,61.1194364
0.0054234918,59.4595901
0.00575247919,57.7347383
0.00611980958,55.9757031
0.00648713997,54.3682975
0.00685447036,52.8919217
0.00727026048,51.3577335
0.00773451034,49.79315
0.00843088512,47.6933047
0.00918850565,45.6857279
0.0100686177,43.6444379
0.0109487297,41.8546025
0.0119836523,40.0077625
0.0127252043,38.825469
0.0138375323,37.2336548
0.0146769129,36.1543097
0.0156141221,35.0536291
0.0165513312,34.0478834
0.0174885404,33.1241761
0.01854939,32.1643603
0.0197338801,31.1856036
0.0209183702,30.2912981
0.0221028603,29.4699722
0.023346329,28.6760104
0.0246487763,27.9097812
0.0269915841,26.674059
0.0296291684,25.462579
0.0324671693,24.3280489
0.0353051702,23.3336089
0.038642372,22.3079002
0.0410335736,21.6515298
0.0446203759,20.7681909
0.0473270346,20.1695284
0.0503491504,19.5593199
0.0533712661,19.0020352
0.0563933819,18.490491
0.0598141876,17.9592791
0.065543431,17.1654279
0.0693629266,16.692318
0.0731824222,16.2571809
0.0804233162,15.5201557
0.0876642101,14.8778272
0.0951786046,14.2917247
0.10324,13.7370261
0.113481386,13.1215497
0.120750505,12.7344328
0.128461151,12.361458
0.140027119,11.8630437
0.152610308,11.3893107
0.162355394,11.06285
0.17210048,10.766146
0.181845566,10.4951871
0.192876264,10.2154273
0.205192573,9.9323044
0.223667037,9.55639092
0.235983347,9.33332769
0.2488,9.1211819
0.273523564,8.7607551
0.298247129,8.45341343
0.317920121,8.23993622
0.347429609,7.96228193
0.376939098,7.72693693
0.404614225,7.5379541
0.435376901,7.35806627
0.476393801,7.15942122
0.508156901,7.03279486
0.53992,6.92640717
0.571004725,6.83948481
0.602089449,6.76766892
0.643784725,6.69241757
0.68548,6.63866695
0.723214834,6.60664775
0.778472251,6.58549024
0.83104,6.59127816
0.90382,6.6375724
0.9766,6.72565784
1.04938,6.85418583
1.12216,7.02322468
1.19494,7.23410273
1.24159713,7.39242546
1.30411,7.63477538
1.37689,7.9641779
1.44967,8.35016618
1.51111747,8.72577371
1.577035,9.1863476
1.613425,9.46927467
1.649815,9.77480271
1.686205,10.1049451
1.722595,10.4619823
1.758985,10.8485022
1.795375,11.2674477
1.84996,11.964133
1.88635,12.479896
1.92274,13.0421173
1.95499896,13.5837178
1.98201299,14.071771
2.013715,14.6887618
2.050105,15.4624453
2.086495,16.3149763
2.122885,17.2572195
2.148358,17.9769541
2.181109,18.9843587
2.21386,20.0957073
2.242972,21.1826747
2.272084,22.3754899
2.28664,23.0159287
2.315752,24.3948454
2.344864,25.9198477
2.35942,26.7436718
2.388532,28.5291902
2.417644,30.5222891
2.4322,31.6069103
2.45753155,33.6525361
2.475868,35.2725422
2.497702,37.3739102
2.512258,38.8904286
2.534092,41.3597561
2.548648,43.1498065
2.570482,46.0785237
2.592316,49.33887
2.61415,52.9829442
2.635984,57.0734654
2.643262,58.5488782
2.657818,61.6864636
2.668735,64.2171347
2.679652,66.9147962
2.68693,68.8133471
2.701486,72.8727861
2.708764,75.044525
2.72332,79.7024087
2.737876,84.8258193
2.752432,90.4786071
2.75971,93.5264772
2.774266,100.118247
2.788822,107.453581
2.7961,111.43523
2.803378,115.647613
2.814295,122.438648
2.821573,127.310496
2.828851,132.484223
2.836129,137.984963
2.843407,143.840469
2.850685,150.081445
2.857963,156.74192
2.865241,163.85968
2.872519,171.476761
2.879797,179.64002
2.8888945,190.692472
2.8961725,200.285578
2.90527,213.326926
2.9143675,227.676791
2.923465,243.5106
2.9325625,261.032931
2.94166,280.483194
2.9507575,302.142529
2.9543965,311.497102
2.959855,326.342205
2.96440375,339.514369
2.9689525,353.473827
2.97350125,368.280989
2.97895975,387.261702
2.9835085,404.17412
2.988967,425.902634
2.9944255,449.339236
2.999884,474.652854
3.0053425,502.031252
3.010801,531.683041
3.0162595,563.839796
3.021718,598.758199
3.0271765,636.722123
3.03354475,685.281728
3.039913,738.963243
3.043552,772.169247
3.047191,807.366333
3.05355925,874.137127
3.0562885,904.915453
3.0599275,948.111317
3.0635665,993.90108
3.0672055,1042.42324
3.0708445,1093.81288
3.0744835,1148.19785
3.0781225,1205.69402
3.083581,1297.979
3.0886756,1390.81125
3.094498,1504.84134
3.0988648,1595.73757
3.1032316,1690.89132
3.1105096,1857.37323
3.1265212,2235.75523
3.1323436,2364.72768
3.1367104,2453.03194
3.1396216,2506.41146
3.1425328,2554.47333
3.145444,2596.45499
3.1483552,2631.6506
3.1512664,2659.43829
3.1541776,2679.30589
3.1570888,2690.87343
3.15985444,2693.96309
3.1643668,2682.36437
3.167278,2664.12856
3.1701892,2637.82475
3.1731004,2603.92284
3.1760116,2563.01176
3.1789228,2515.77467
3.181834,2462.96205
3.1862008,2375.0225
3.1920232,2245.68547
3.2094904,1828.17536
3.218224,1628.15241
3.2240464,1503.59191
3.2269576,1444.37112
3.23278,1332.36822
3.236419,1266.78135
3.240058,1204.56599
3.2455165,1117.41127
3.2491555,1063.27387
3.2527945,1012.16767
3.258253,940.896199
3.2637115,875.664936
3.26917,815.990854
3.2746285,761.40182
3.2782675,727.610725
3.283726,680.510192
3.287365,651.327236
3.2928235,610.601667
3.2964625,585.333791
3.301921,550.017948
3.30556,528.070249
3.309199,507.304748
3.312838,487.646277
3.316477,469.024721
3.320116,451.374726
3.327394,418.75003
3.334672,389.333515
3.34195,362.74474
3.349228,338.653668
3.356506,316.77373
3.363784,296.855772
3.371062,278.682811
3.37834,262.06553
3.381979,254.287711
3.389257,239.700132
3.392896,232.856451
3.400174,219.992303
3.403813,213.943854
3.411091,202.550522
3.41473,197.182439
3.422008,187.050505
3.425647,182.267319
3.436564,168.944258
3.447481,157.000203
3.458398,146.255746
3.469315,136.559102
3.480232,127.78127
3.48751,122.384778
3.498427,114.901478
3.505705,110.283393
3.516622,103.856574
3.5239,99.8766893
3.534817,94.3198422
3.542095,90.8677323
3.553012,86.033235
3.56029,83.0210723
3.574846,77.4526682
3.589402,72.4274634
3.603958,67.8782123
3.618514,63.7476597
3.63307,59.9868282
3.647626,56.5536356
3.662182,53.4117715
3.676738,50.5297811
3.691294,47.8803117
3.698572,46.6351916
3.713128,44.2906912
3.727684,42.1244613
3.749518,39.1722342
3.764074,37.3806274
3.77863,35.7152268
3.800464,33.4294434
3.822298,31.3695141
3.844132,29.5074992
3.865966,27.8196447
3.8878,26.2856558
3.909634,24.8881141
3.93271539,23.542489
3.96058,22.0772098
3.975136,21.3738056
4.004248,20.0807162
4.018804,19.4860382
4.047916,18.3894461
4.077028,17.4039171
4.091584,16.948618
4.127974,15.908099
4.164364,14.9917923
4.197115,14.2597064
4.233505,13.5365385
4.269895,12.897248
4.306285,12.3321386
4.342675,11.8330577
4.379065,11.393133
4.415455,11.006563
4.451845,10.6684478
4.488235,10.3746547
4.524625,10.1217084
4.561015,9.90670357
4.597405,9.72723396
4.633795,9.58133585
4.670185,9.46744336
4.70919,9.37954424
4.756562,9.31890368
4.783124,9.30664714
4.827738,9.32099845
4.872352,9.37941685
4.916966,9.48283931
4.95353521,9.60231868
4.983887,9.72621089
5.028501,9.95116841
5.073115,10.2305863
5.095422,10.3921892
5.140036,10.7627798
5.18465,11.202362
5.2181105,11.5823149
5.2627245,12.1640391
5.2850315,12.4904568
5.3073385,12.8428767
5.3296455,13.2232634
5.3519525,13.6338023
5.385413,14.3115442
5.40772,14.8087299
5.430027,15.3458867
5.4634875,16.2345175
5.4857945,16.8882295
5.5081015,17.5964685
5.541562,18.773009
5.563869,19.6426128
5.586176,20.588789
5.608483,21.6197988
5.63079,22.7450256
5.653097,23.9751499
5.675404,25.3223541
5.697711,26.8005606
5.720018,28.425711
5.742325,30.2160907
5.7534785,31.1796879
5.7757855,33.2582627
5.7980925,35.5606431
5.8203995,38.1166614
5.831553,39.5003208
5.84828325,41.7211444
5.85943675,43.3061482
5.876167,45.8544596
5.8873205,47.6761593
5.90405075,50.6095982
5.91520425,52.7096531
5.9319345,56.0957724
5.943088,58.5226664
5.95981825,62.4393513
5.9765485,66.7157961
5.99327875,71.385088
6.010009,76.4811681
6.0211625,80.1323278
6.032316,83.9977046
6.04904625,90.2164672
6.06019975,94.6534943
6.07135325,99.329717
6.0903142,107.833874
6.1126212,118.713065
6.1260054,125.659548
6.1393896,132.874797
6.2018492,167.779966
6.2196948,176.947166
6.233079,183.123662
6.2420018,186.799688
6.2509246,190.055696
6.2598474,192.837915
6.2687702,195.097786
6.277693,196.793914
6.2866158,197.893842
6.2955386,198.375522
6.30356912,198.271419
6.3133842,197.453678
6.322307,196.064795
6.3312298,194.086292
6.3401526,191.552972
6.3490754,188.508307
6.3579982,185.00262
6.3758438,176.831825
6.389228,169.919795
6.4026122,162.552446
6.4606104,129.315511
6.478456,119.632644
6.4873788,114.988695
6.5052244,106.146204
6.5141472,101.959157
6.52864675,95.4965597
6.53980025,90.8127282
6.5565305,84.2464449
6.57326075,78.2109855
6.589991,72.676535
6.60672125,67.6091642
6.6234515,62.973315
6.64018175,58.7334951
6.656912,54.8553792
6.6680655,52.4547847
6.68479575,49.1084013
6.69594925,47.0347465
6.7126795,44.1403813
6.723833,42.3441969
6.74056325,39.8331076
6.75171675,38.272103
6.76287025,36.7948235
6.77402375,35.3959434
6.790754,33.4338559
6.8019075,32.2099908
6.8242145,29.9457715
6.8465215,27.9017465
6.8688285,26.0519629
6.8911355,24.3739054
6.9134425,22.8480181
6.9357495,21.4572898
6.9580565,20.1868966
6.9803635,19.0238949
6.991517,18.4790698
7.013824,17.4563637
7.036131,16.5152889
7.058438,15.6476559
7.0695915,15.2390892
7.103052,14.104667
7.1365125,13.0923045
7.169973,12.185509
7.2034335,11.3704186
7.236894,10.6353262
7.2703545,9.97029942
7.303815,9.36687384
7.326122,8.99519183
7.3595825,8.47884731
7.393043,8.00696828
7.4265035,7.57467735
7.4488105,7.30636253
7.482271,6.9309159
7.504578,6.69718019
7.549192,6.26547842
7.593806,5.87634131
7.616113,5.69603963
7.660727,5.36103536
7.705341,5.0567607
7.727648,4.91501214
7.772262,4.65030749
7.816876,4.40833561
7.86149,4.18663926
7.906104,3.9830864
7.95383731,3.78329331
7.995332,3.62321918
8.039946,3.46386034
8.08456,3.31649337
8.129174,3.18001538
8.173788,3.05345107
8.218402,2.93593575
8.263016,2.82670097
8.30763,2.72506223
8.374551,2.58552818
8.419165,2.50034588
8.463779,2.42088743
8.508393,2.34673666
8.553007,2.27751944
8.642235,2.1525723
8.709156,2.06954237
8.798384,1.9715319
8.887612,1.88657986
8.97684,1.81338885
9.021454,1.78087016
9.108034,1.72500734
9.194322,1.67831698
9.283182,1.63909412
9.32772,1.62269692
9.416796,1.59628055
9.505872,1.5782742
9.594948,1.56870405
9.639486,1.56713575
9.728562,1.57063553
9.817638,1.58339653
9.906714,1.6061082
9.9999999,1.64159732
10.0000001,8.86469013
10.9654204,10.1190807
12.091869,11.6446541
13.4190032,13.5230192
15.0,15.8685
15.3194347,14.7482035
15.6282426,13.7601852
15.9272953,12.8831672
16.2173605,12.1001035
16.4990877,11.3972667
16.7730944,10.7633325
17.0399072,10.1890212
17.3,9.66661
17.6751847,8.97779952
18.037815,8.37107178
18.3889288,7.83310511
18.7294394,7.35325025
19.0601182,6.92294788
19.3816987,6.53514911
19.6948054,6.18408725
20.0,5.86497
20.2899859,5.57690191
20.5732272,5.31286352
20.8501162,5.07008452
21.1210116,4.84619462
21.3862315,4.63916322
21.6460827,4.4472237
21.9008381,4.26884881
22.1507504,4.10270566
22.6368765,3.80263577
23.1062061,3.53919191
23.5601641,3.30629454
24.0,3.09911
25.2786554,3.40052901
26.6900018,3.74745931
28.2551771,4.14946691
31.3482309,4.98112184
32.8104119,5.38695569
34.4010339,5.8434241
36.1371094,6.35922038
38.0386588,6.94495183
40.1296099,7.61373321
42.4385461,8.38185377
45.0,9.26978
47.5094521,8.67811252
50.0,8.15559
52.555788,7.67589919
55.0937963,7.24809478
57.6150654,6.8642603
60.1205421,6.51800315
62.611012,6.20411567
65.0872955,5.91829336
67.5500796,5.65696576
70.0,5.41714
73.7621236,5.13284619
77.5204431,4.87678118
81.2751483,4.64494505
85.0264147,4.43405881
88.7743879,4.24140993
92.5192239,4.06473338
96.2610538,3.9021246
100.0,3.75197
105.591688,3.64586032
111.278312,3.54640488
122.929226,3.36501168
134.939653,3.20361417
147.297034,3.05896933
159.992944,2.92848097
173.014748,2.81011726
186.353363,2.70220135
200.0,2.60336
211.798707,2.5250185
223.805707,2.45187818
236.016778,2.38341816
248.427801,2.31918678
273.835654,2.20187503
300.0,2.09733
323.244724,2.01482769
347.01656,1.93938869
371.301632,1.87011067
396.086507,1.80624262
421.361055,1.74714743
447.111795,1.69229457
473.328194,1.64122624
500.0,1.59355
548.055174,1.5162981
597.435049,1.44709324
648.096981,1.38469734
700.0,1.32812
735.692338,1.29270323
771.919725,1.25936875
845.940535,1.19822788
921.990318,1.14345764
1000.0,1.09408
1056.11422,1.06215701
1113.15334,1.03228231
1171.09886,1.00425769
1229.93275,0.977910342
1350.20366,0.929657228
1473.83758,0.886512832
1600.74755,0.847672386
1730.80564,0.812507684
1863.91948,0.780502411
2000.0,0.751235
2117.99117,0.728615971
2238.06414,0.707499243
2360.17665,0.687734314
2484.28751,0.669190688
2738.36372,0.635323894
3000.0,0.605144
3231.56616,0.582471531
3468.64476,0.561673779
3711.10323,0.542518336
3958.81246,0.524810765
4211.67607,0.508385177
4469.56279,0.493103008
4732.37066,0.478844086
5000.0,0.465505
5478.09537,0.445439693
5971.04614,0.427300751
6478.47175,0.410811651
7000.0,0.395748
7712.65024,0.379060297
8450.5805,0.363977416
9213.2193,0.350267259
10000.0,0.337742
11089.8602,0.325088151
12226.754,0.313584926
13409.9971,0.303072318
14638.8774,0.293420074
15913.0481,0.284518287
17231.6507,0.276278941
18594.1517,0.268625943
20000.0,0.261495
22318.8058,0.253477395
24758.7444,0.246120856
27319.3521,0.239339856
30000.0,0.233064
33423.5794,0.227092353
37034.6722,0.221564696
40833.6763,0.216428258
44820.7,0.211639
54683.2394,0.202326938
59577.5352,0.198119461
70000.0,0.190442
77000.7081,0.185927302
84334.2507,0.181718298
92000.7664,0.177781898
100000.0,0.17409
107189.899,0.169662797
114587.972,0.165513341
122192.074,0.161614569
130000.0,0.157943
148080.0,0.152909
170000.0,0.150095
200000.0,0.150323
246870.272,0.148086679
300000.0,0.146046
307107.0,0.145363
400000.0,0.14429
447586.244,0.149225542
500000.0,0.154253
517904.0,0.154471
600000.0,0.158012
700000.0,0.165754
776805.0,0.168368
800000.0,0.169402
900000.0,0.172375
1000000.0,0.173123
1071688.01,0.169243191
1145593.76,0.16558834
1300000.0,0.158874
1374397.44,0.151557513
1449207.67,0.144902858
1524413.79,0.13882338
1600000.0,0.133247
1650450.99,0.127967365
1700593.03,0.123075746
1750438.75,0.118531386
1800000.0,0.114299
1850906.18,0.109076328
1901188.02,0.104281882
1950876.43,0.0998661591
2000000.0,0.0957869
2039311.35,0.0918884572
2078057.64,0.088269854
2116264.87,0.0849028582
2153957.29,0.081762844
2227884.16,0.0760802482
2300000.0,0.0710786
2351688.7,0.0671079698
2402202.77,0.0635186506
2451617.23,0.0602599761
2500000.0,0.0572897
2551896.61,0.0539447283
2602470.8,0.0509323271
2651811.8,0.0482069418
2700000.0,0.0457308
2740488.05,0.0434404123
2780021.11,0.0413448359
2818655.72,0.0394211801
2856443.47,0.0376499215
2893430.03,0.0360143848
2929659.41,0.0345001004
3035951.87,0.0303785665
3071124.91,0.0290760673
3105560.42,0.0278684695
3139296.47,0.0267461825
3204805.76,0.0247251644
3267902.68,0.0229575886
3328792.66,0.0214005254
3387668.49,0.0200196992
3444690.36,0.0187879228
3535872.77,0.0169425529
3570986.44,0.0162544301
3639087.13,0.0150157602
3704574.46,0.013933051
3767683.92,0.0129796915
3828611.24,0.0121347873
3887539.9,0.0113814642
3944623.88,0.0107061872
4070535.45,0.00934240523
4138367.39,0.00868017153
4203734.17,0.00809561236
4266843.99,0.00757634945
4327872.19,0.00711249627
4386983.46,0.00669595233
4444317.69,0.0063201272
4500000.0,0.00597957
4569318.36,0.0055985137
4636392.37,0.00525788971
4701391.78,0.00495184548
4764467.81,0.00467557864
4825750.72,0.0044251351
4885364.0,0.00419719023
4943414.73,0.00398896811
5000000.0,0.00379812
5068158.52,0.00359465901
5134492.99,0.0034095213
5199119.96,0.00324043865
5262145.11,0.00308549314
5323661.48,0.00294306025
5383758.03,0.00281174035
5442513.44,0.0026903356
5500000.0,0.00257781
5631100.7,0.00239159285
5757903.19,0.00222794561
5880764.89,0.00208314029
6000000.0,0.00195421
6128581.03,0.0018570464
6254683.02,0.00176826806
6378446.47,0.00168686768
6500000.0,0.00161199
6750276.66,0.00154697649
7000000.0,0.00148694
7500000.0,0.00145113
8000000.0,0.00152236
8500000.0,0.00158951
9000000.0,0.00164464
9500000.0,0.0016648
10500000.0,0.00164206
11000000.0,0.00160394
11500000.0,0.00155036
12000000.0,0.00148222
12500000.0,0.00139628
12751626.5,0.0013418402
13000000.0,0.00129117
13252366.1,0.00123045937
13500000.0,0.0011747
13752935.2,0.00111236275
14000000.0,0.00105568
14253120.6,0.000998017034
14500000.0,0.000945712
14751817.8,0.00090919617
15000000.0,0.000875158
15253003.9,0.000829560216
15500000.0,0.000788007
16000000.0,0.000738546
16252725.9,0.000703232291
16500000.0,0.000670806
16752696.4,0.00063927114
17000000.0,0.000610271
17500000.0,0.000583465
17752489.6,0.000557951618
18000000.0,0.000534352
18500000.0,0.000516168
19004900.7,0.00048756286
19500000.0,0.000461723
20000000.0,0.000450977
