energy [eV],cross section [b]
1e-05,412.515662
1.0647618e-05,399.773695
1.12952361e-05,388.143926
1.19428541e-05,377.473433
1.25904722e-05,367.6372
1.38135447e-05,350.984468
1.50366173e-05,336.407293
1.6365301e-05,322.461957
1.79052071e-05,308.283883
1.94451132e-05,295.825268
2.06046867e-05,287.380638
2.18972297e-05,278.769935
2.38360442e-05,267.191996
2.51285872e-05,260.229488
2.67559598e-05,252.191408
2.83833325e-05,244.854941
3.00107051e-05,238.12362
3.16380778e-05,231.91858
3.36870168e-05,224.754981
3.57359558e-05,218.216665
3.77848948e-05,212.217659
4.11236893e-05,203.420453
4.49932557e-05,194.476427
4.88628221e-05,186.617097
5.34006555e-05,178.51201
5.66486334e-05,173.318945
6.15206003e-05,166.31465
6.5189268e-05,161.567038
6.92786256e-05,156.726058
7.54126619e-05,150.216884
7.95020194e-05,146.302528
8.46507137e-05,141.783481
8.97994079e-05,137.658884
9.49481022e-05,133.874503
0.000103338021,128.32492
0.000113061695,122.682719
0.000122785368,117.724783
0.000134188303,112.611814
0.000146430867,107.801561
0.000158673431,103.559357
0.000168949409,100.360585
0.000179225387,97.4410214
0.000194639354,93.5031774
0.000212715284,89.4421998
0.000225653225,86.8402641
0.000238591166,84.4529485
0.000251529107,82.2522828
0.000275963326,78.5265589
0.000292252804,76.306761
0.000308542283,74.2651615
0.000337196246,71.0397305
0.00036796008,68.0052636
0.000398723915,65.3291412
0.000437457035,62.369987
0.000463279116,60.6069141
0.000502012236,58.2219366
0.000534523454,56.42358
0.000583290282,54.0134583
0.0006158015,52.5683331
0.000652523689,51.0677458
0.000693456848,49.5376487
0.000734390007,48.1373315
0.000775323166,46.8494278
0.000821558135,45.5120961
0.000898863305,43.5110628
0.000950400085,42.3149311
0.00100193687,41.2123184
0.00109926772,39.3455983
0.00119659858,37.7115443
0.00130233387,36.1483199
0.00138402997,35.0652628
0.00146572607,34.0740691
0.00158827022,32.7332442
0.00169112946,31.7222165
0.00184541833,30.3672592
0.00194827757,29.5548188
0.00206445952,28.7111989
0.00219396417,27.8509901
0.00232346881,27.0637435
0.00245297346,26.3396959
0.00259925202,25.5878615
0.00284383071,24.4629031
0.00308840941,23.4743789
0.0033752264,22.4549483
0.00368316253,21.4958779
0.00399109866,20.6500692
0.00424956941,20.0123024
0.00463727553,19.1575837
0.00502498166,18.4038043
0.00535040854,17.835431
0.00567583542,17.3166716
0.0060012623,16.8407042
0.00632668918,16.4019521
0.00673641699,15.8954242
0.0071461448,15.4331122
0.0075558726,15.0089366
0.00822353374,14.3869119
0.00899733373,13.7545133
0.00977113371,13.1988162
0.0106785675,12.6257504
0.0116528182,12.0866211
0.012627069,11.6111655
0.0134448207,11.2526602
0.0142625725,10.9254517
0.0154892002,10.484127
0.0164128701,10.1849957
0.0174424582,9.87998651
0.0184720463,9.60085193
0.0195016344,9.34412953
0.0206645784,9.07755892
0.0219608785,8.80575121
0.0239053285,8.44028824
0.026103755,8.0773381
0.0285150201,7.72857625
0.0309262853,7.42145472
0.033784935,7.10086145
0.0358398296,6.89451543
0.0389221716,6.6162116
0.0425368284,6.32922056
0.0451240378,6.14534973
0.0490048519,5.89736133
0.051927166,5.72928033
0.0551845848,5.55790226
0.0584420037,5.40106816
0.0616994225,5.25683167
0.0653787539,5.10706773
0.0715306201,4.88299495
0.0776824862,4.68611614
0.0848967683,4.4831026
0.0926422582,4.29213134
0.100387748,4.12373291
0.10688904,3.99676904
0.116640977,3.82663644
0.126392915,3.67661841
0.134578348,3.56351581
0.142763782,3.46029905
0.155041932,3.32110519
0.164287572,3.22677397
0.174593419,3.13060271
0.184899266,3.04260306
0.195205113,2.96168115
0.213333584,2.83386528
0.232796906,2.71365326
0.252260228,2.60767059
0.276765469,2.49052052
0.301270711,2.3880126
0.327891957,2.28998858
0.348460794,2.22210024
0.369029632,2.15999092
0.399882888,2.07600832
0.425780025,2.01271207
0.464625731,1.92792854
0.490522868,1.8771191
0.519774297,1.82438368
0.568682875,1.74552698
0.601288594,1.69842204
0.633894312,1.65502361
0.695472522,1.58160756
0.736524661,1.53790415
0.777576801,1.49773703
0.849789453,1.4343393
0.927319326,1.37477131
1.0048492,1.32230791
1.06992505,1.28279768
1.13500089,1.24677707
1.23261467,1.19826213
1.34708615,1.14832375
1.42901972,1.11638386
1.51095328,1.08712175
1.59288685,1.06018756
1.74762419,1.01468568
1.85078241,0.987640668
1.95394064,0.962814721
2.07046029,0.93708934
2.20034137,0.9109196
2.39516299,0.875841415
2.60680727,0.842417389
2.85209689,0.808590515
3.0973865,0.779015146
3.28209345,0.759058956
3.48798092,0.738794752
3.79681213,0.711698772
4.13231062,0.685963047
4.39153267,0.668254479
4.65075472,0.652146758
4.90997677,0.637424658
5.21693,0.621542857
5.49896725,0.608238807
6.06304175,0.584732869
6.75599776,0.560414582
7.37237591,0.542089478
8.12484929,0.523023337
8.91440589,0.506118885
9.67694768,0.49219862
10.5059989,0.479233265
11.4015596,0.467301695
12.2565561,0.457567858
13.2892153,0.447596157
14.5401018,0.437670386
15.554916,0.431055007
16.5786528,0.425481707
18.48175,0.417573692
20.0746103,0.412994478
20.9362826,0.411177608
22.6270063,0.408795009
25.11416,0.40778129
26.8526236,0.408616349
29.2594162,0.411642863
30.9175187,0.414902929
33.4425226,0.421610714
35.8918262,0.430072811
38.37898,0.440627483
40.8804628,0.453279578
43.3532875,0.467882327
45.8404412,0.48480453
48.327595,0.504147309
51.0442297,0.528311975
53.3019025,0.551066286
55.7890563,0.57927457
58.27621,0.611186562
60.7633637,0.647312489
63.2505175,0.688268927
64.210414,0.70552146
65.7376713,0.734801778
66.5667225,0.751703018
68.224825,0.787815429
69.0538763,0.807110444
70.7119788,0.848409658
71.54103,0.870516196
73.1991325,0.917926244
74.0281837,0.943355073
75.6862862,0.998007541
77.3443888,1.05824192
78.5879656,1.10750263
79.8315425,1.16063547
81.108451,1.21961377
82.7332219,1.30184343
83.9767988,1.37081423
85.2203756,1.44558974
86.0494269,1.4989478
86.8784781,1.55532627
87.7075294,1.61492173
88.5365806,1.67794251
89.3656319,1.74460869
90.1946831,1.81515187
91.43826,1.92876927
92.2673113,2.01008734
93.0963625,2.09617124
93.9254137,2.18729005
94.754465,2.28371397
95.5835163,2.38570953
96.4125675,2.49353323
97.2416188,2.60742344
98.4851956,2.79008197
99.7287725,2.9873716
101.03321,3.21023133
102.050116,3.39504728
103.376598,3.6497418
104.70308,3.91768567
108.682526,4.75304719
110.009008,5.01571637
111.00387,5.19624141
111.998731,5.35658031
112.661972,5.44951871
113.325213,5.52944818
113.988454,5.59491681
114.983316,5.66328134
115.646557,5.68754612
116.309798,5.6940085
116.973039,5.68239076
117.63628,5.65276052
118.13371,5.61895255
118.631141,5.57553376
119.294382,5.5033835
120.289243,5.36706516
120.952484,5.2595522
121.615725,5.14060652
122.610587,4.94448878
123.937069,4.65896716
127.916515,3.7513222
129.242997,3.46140066
130.569479,3.1869129
131.895961,2.93042594
133.222443,2.69311696
134.217305,2.52785085
135.377976,2.34854364
136.207028,2.22907561
137.036079,2.11648401
137.86513,2.01047088
138.694181,1.91071933
139.523233,1.81690312
140.352284,1.72869418
141.181335,1.64576809
142.010386,1.56780829
142.839438,1.49450898
143.668489,1.42557714
144.49754,1.36073378
145.741117,1.27056065
146.570168,1.21481513
147.399219,1.16229857
148.642796,1.08911698
149.471847,1.04377332
150.300899,1.00097426
151.544476,0.941185429
152.788052,0.886235169
154.031629,0.835662104
155.275206,0.789052799
156.104257,0.759997484
157.76236,0.706282523
158.591411,0.68144343
160.337885,0.633073071
161.907616,0.593728415
162.736668,0.574373233
164.39477,0.538342103
165.223821,0.521564786
166.881924,0.490258094
168.540026,0.461678162
169.369078,0.448319037
171.02718,0.423299238
172.685282,0.40034989
173.514334,0.389585538
175.172436,0.36935922
176.830539,0.350728054
178.488641,0.333539645
180.146744,0.317658976
181.804846,0.302966169
183.462949,0.289354566
185.121051,0.276729072
186.779154,0.265004743
188.437256,0.25410555
190.095359,0.243963325
191.753461,0.234516836
193.411564,0.225710991
195.069666,0.217496145
197.55682,0.20618517
199.214923,0.199261082
200.873025,0.192789021
203.377027,0.183802617
205.847332,0.175783015
209.163538,0.166198368
212.479742,0.157818132
215.795948,0.150505242
219.112153,0.144146013
220.770255,0.141293932
224.08646,0.136193995
225.744563,0.133928626
229.060767,0.129929574
230.71887,0.128183175
233.507485,0.125607716
236.2961,0.123467971
239.047288,0.121767948
241.798476,0.120464728
245.324283,0.119363666
248.85009,0.11889761
252.375897,0.119072535
255.901704,0.119906201
259.427511,0.12142918
262.953318,0.12368644
266.479125,0.126739605
268.242029,0.128589213
271.767836,0.132996206
274.412191,0.136980368
276.175094,0.139993405
277.937998,0.143316718
280.582353,0.148937552
283.226708,0.155408151
285.871063,0.162844631
288.515419,0.171387793
290.278322,0.177781305
292.041226,0.184802175
294.685581,0.196663462
295.567033,0.20101237
297.329936,0.210373142
298.211388,0.215411661
299.974291,0.226279748
301.737195,0.23831699
303.500099,0.251681623
304.38155,0.258918801
305.968163,0.272984226
307.731067,0.290364588
309.14139,0.305780201
310.904293,0.327221199
312.314616,0.346360382
313.724939,0.367527421
315.135262,0.391010296
316.545584,0.417150325
317.250746,0.431340968
318.243318,0.452724109
318.94848,0.469005058
319.718811,0.487921418
320.423972,0.506359398
321.481714,0.536229717
322.186876,0.557766665
323.244618,0.592795803
323.949779,0.618156587
325.007521,0.659587671
325.712683,0.689721821
326.770425,0.739195384
327.828167,0.794505608
328.885909,0.856598824
329.23849,0.878995181
329.943651,0.926620235
330.296232,0.951955384
331.001393,1.00596587
331.353974,1.03477213
332.059135,1.09635093
332.411716,1.12928585
333.116877,1.19990063
333.469458,1.23778375
334.174619,1.31927243
334.5272,1.36313498
335.232362,1.45782229
335.937523,1.5629117
336.466394,1.64948336
336.995265,1.74354406
337.347846,1.81083957
337.700426,1.88214145
338.229297,1.99731385
338.581878,2.08010056
338.934459,2.16816036
339.28704,2.26194259
339.63962,2.36194451
339.992201,2.46871742
340.344782,2.58287363
340.697362,2.70509457
341.049943,2.83614003
341.402524,2.97685897
341.755104,3.12820185
342.107685,3.29123508
342.460266,3.46715768
342.812847,3.65732079
342.989137,3.75821186
343.341718,3.97265849
343.694298,4.20554705
343.870589,4.32954893
344.223169,4.59410476
344.57575,4.88287883
344.75204,5.03723781
345.104621,5.3679015
345.457202,5.73083339
345.633492,5.92565014
345.986073,6.34480805
346.162363,6.57040282
346.426799,6.93075685
346.691234,7.31976781
346.95567,7.7402915
347.220105,8.19550283
347.484541,8.68892951
347.748976,9.22448705
348.013412,9.80651389
348.277847,10.4398047
348.542283,11.1296392
348.806718,11.8818013
348.983009,12.4209562
349.159299,12.9925857
349.423735,13.9154868
349.600025,14.5775633
349.776315,15.2796996
349.952606,16.0241686
350.128896,16.8132338
350.305186,17.6491013
350.481477,18.5338577
350.657767,19.4693907
350.922203,20.9712618
351.169009,22.4822946
351.380558,23.8617326
351.662622,25.8182695
351.944687,27.8974781
352.226751,30.0766696
353.002429,36.2283747
353.213977,37.8147657
353.425526,39.2917255
353.637074,40.6162238
353.778106,41.3930402
353.919139,42.0704552
354.060171,42.6371075
354.201203,43.083035
354.342235,43.4000886
354.483268,43.5822913
354.6243,43.6261115
354.765332,43.5306297
354.906365,43.2975833
355.047397,42.9312859
355.188429,42.4384277
355.329461,41.8277741
355.470494,41.1097882
355.611526,40.2962041
355.752558,39.3995844
355.964107,37.9273198
356.246171,35.7936644
357.021849,29.6007513
357.303913,27.4250423
357.585978,25.3553749
357.72701,24.367233
358.009075,22.4921638
358.238252,21.0711454
358.502688,19.5459075
358.678978,18.5957722
358.855268,17.6972601
359.031559,16.8485083
359.207849,16.047434
359.384139,15.2918186
359.56043,14.5793744
359.73672,13.9077959
360.001156,12.9720678
360.177446,12.3927764
360.353736,11.8466198
360.618172,11.0850975
360.882607,10.3871459
361.147043,9.74684462
361.411478,9.15878792
361.675914,8.61806609
361.94035,8.12023695
362.204785,7.66129217
362.557366,7.10366547
362.733656,6.84597692
363.086237,6.36859831
363.262527,6.14738025
363.615108,5.7364507
363.791398,5.54550347
364.143979,5.18986235
364.49656,4.86594126
364.67285,4.71476503
365.025431,4.43201006
365.378011,4.17304841
365.730592,3.93538196
366.083173,3.71681878
366.259463,3.61408923
366.612044,3.42063945
366.964625,3.24189304
367.317205,3.07643834
367.669786,2.92302413
368.022367,2.78053901
368.374947,2.64799359
368.727528,2.52450524
369.080109,2.40928488
369.432689,2.30162569
369.96156,2.15294388
370.314141,2.06154951
370.666722,1.97575921
371.195593,1.85662772
371.724464,1.74780494
372.253335,1.64815211
372.782206,1.55668131
373.311077,1.47253239
374.016238,1.37043835
374.368819,1.32328744
375.073981,1.23593769
375.426561,1.19544257
376.131723,1.12015608
376.484303,1.08513215
377.189465,1.01980541
377.542045,0.989318127
378.423497,0.918790966
379.304949,0.855509522
380.01011,0.809456086
380.362691,0.787806304
381.067852,0.747025234
382.125595,0.691530047
382.830756,0.657893033
383.888498,0.611854193
384.59366,0.583793919
385.298821,0.557620794
386.003982,0.533170218
386.709144,0.51029506
387.414305,0.488863496
388.119467,0.46875714
388.824628,0.449869443
389.529789,0.432104305
390.234951,0.415374875
390.940112,0.399602506
391.645274,0.384715846
392.350435,0.370650046
393.055596,0.357346059
394.113338,0.338701969
395.523661,0.316044685
396.933984,0.295603398
398.344307,0.277098976
399.75463,0.260294761
400.75251,0.249320776
401.810252,0.238437433
402.575275,0.23100915
403.633017,0.221304078
404.86705,0.210744708
405.748501,0.203664463
407.511405,0.190548287
408.392857,0.184467353
410.15576,0.173160438
411.918664,0.16287848
412.800116,0.158083566
414.563019,0.149118966
416.325922,0.140909773
418.088826,0.133373329
419.85173,0.126437964
421.614633,0.120041289
423.377537,0.114128795
425.14044,0.10865269
426.903344,0.103570928
428.666247,0.0988464047
430.42915,0.0944462765
432.192054,0.0903413862
433.954957,0.0865057789
435.717861,0.0829162896
438.362216,0.0779487784
440.12512,0.0748885063
441.888023,0.0720106005
444.532378,0.0680047712
447.176734,0.0643347741
449.821089,0.0609638195
453.346896,0.0568798969
455.1098,0.0549956566
458.635606,0.0515075054
460.39851,0.0498912863
463.924317,0.0468874695
465.68722,0.0454903121
469.213028,0.0428843272
470.975931,0.041667984
474.501738,0.0393918574
476.264642,0.0383260995
479.790449,0.0363258199
481.553352,0.0353865006
485.079159,0.0336187129
486.842062,0.0327863561
490.367869,0.0312159334
495.65658,0.0290729261
499.182387,0.0277702005
503.821537,0.0261915596
507.347344,0.0250844235
511.522712,0.0238661839
516.811422,0.0224525847
522.100132,0.0211671295
525.625939,0.0203737099
529.151746,0.0196264481
532.677553,0.0189217713
537.966264,0.0179376208
541.492071,0.0173259287
548.543685,0.0161978411
555.595299,0.015182434
562.646913,0.0142649534
569.698527,0.0134330081
576.750141,0.012676128
583.801755,0.0119854157
590.853369,0.0113532695
597.904983,0.0107731624
604.956597,0.0102394632
615.534018,0.00951543168
622.585632,0.0090777638
629.161244,0.00869844114
640.214667,0.00811656054
647.266281,0.00777795624
654.317895,0.00746204462
661.369509,0.00716683689
668.421123,0.00689056101
678.998544,0.00650822681
689.575965,0.00616029683
700.153386,0.00584279137
712.49371,0.00550629937
723.071132,0.00524364345
733.648553,0.00500213742
744.225974,0.00477962594
754.803394,0.00457422824
765.380815,0.00438429708
775.958237,0.00420838475
786.535658,0.00404521475
796.123544,0.00390737195
805.324746,0.00378336346
815.128798,0.00365946887
827.082438,0.00351898942
841.185666,0.00336686015
848.23728,0.00329587365
869.392122,0.00310123461
890.546964,0.00293109903
911.701806,0.00278224203
932.856648,0.00265203519
954.01149,0.00253833178
975.166332,0.00243937957
989.26956,0.00238089141
1007.77,0.00231255787
1029.28081,0.00224427745
1049.26802,0.00219091463
1069.25524,0.0021467513
1091.74086,0.00210763796
1106.73128,0.00208764378
1129.2169,0.00206671233
1144.20731,0.00205884706
1166.69293,0.00205642371
1189.17855,0.00206576851
1209.16577,0.00208465938
1229.15299,0.00211441562
1249.1402,0.00215620859
1268.83001,0.00221064639
1289.11464,0.00228253764
1304.10505,0.00234753606
1314.09866,0.00239722607
1324.09227,0.0024525626
1339.08268,0.00254740482
1349.07629,0.00261950293
1359.0699,0.00269961873
1374.06032,0.00283690991
1384.05393,0.00294150294
1394.04753,0.00305813074
1404.04114,0.00318842365
1409.03795,0.00325928498
1419.03156,0.00341381297
1424.02836,0.00349810876
1429.02517,0.00358756282
1439.01878,0.00378357143
1449.01238,0.00400552028
1456.50759,0.0041916737
1464.0028,0.00439719553
1468.9996,0.00454626768
1476.49481,0.00479022698
1481.49161,0.004967956
1488.98682,0.00526020573
1493.98362,0.00547419144
1501.47883,0.00582800329
1506.47564,0.00608857578
1513.97084,0.00652216888
1518.96765,0.00684365589
1521.46605,0.00701529119
1526.46285,0.00738258716
1530.21046,0.00768107442
1533.95806,0.00800141864
1536.45646,0.00822818781
1541.45327,0.00871666116
1546.45007,0.00925720547
1548.94847,0.00954934142
1553.94528,0.0101827807
1556.44368,0.0105265702
1560.19128,0.011080059
1563.93889,0.011683785
1567.68649,0.0123440133
1570.18489,0.0128191009
1573.9325,0.0135902554
1577.6801,0.0144401268
1581.4277,0.0153798087
1585.17531,0.0164224226
1588.92291,0.0175835797
1592.67051,0.0188819693
1594.81901,0.0196967531
1596.6176,0.0204227127
1598.21671,0.0211044759
1600.16572,0.0219853708
1601.41492,0.0225809446
1603.91332,0.0238511905
1605.16252,0.0245290157
1607.66093,0.0259788664
1608.91013,0.0267548232
1611.40853,0.0284198212
1612.65773,0.029313814
1615.15613,0.0312387446
1617.65454,0.0333677497
1619.9031,0.0354829399
1622.4015,0.0380867325
1624.40022,0.0403889127
1625.89926,0.0422596536
1626.89862,0.0435820656
1627.89799,0.0449692665
1629.39703,0.0471810496
1631.39575,0.0504001187
1632.39511,0.052137644
1633.89415,0.0549213351
1634.89351,0.0569055706
1636.39255,0.0600940878
1637.39191,0.062373955
1638.89095,0.0660496014
1639.89032,0.0686867356
1641.38936,0.0729537681
1642.8884,0.0776374923
1644.38744,0.0827938123
1645.3868,0.0865258324
1646.88584,0.0926211965
1648.38488,0.0993912953
1649.1344,0.103060793
1649.88392,0.106939049
1650.63345,0.111042128
1651.38297,0.115387658
1652.13249,0.11999502
1652.88201,0.124885558
1653.63153,0.13008282
1654.38105,0.135612839
1655.13057,0.141504445
1656.12993,0.149978204
1656.87945,0.156844226
1657.62897,0.164193315
1658.37849,0.172071476
1659.37785,0.183488714
1660.12737,0.192813045
1661.12674,0.206389994
1662.1261,0.221447355
1663.12546,0.238205634
1663.62514,0.24730276
1664.12482,0.256927342
1664.6245,0.267120363
1665.12418,0.277926799
1665.62386,0.289396088
1666.12354,0.301582659
1666.62322,0.314546536
1667.1229,0.328354029
1667.62258,0.343078523
1668.12226,0.358801378
1668.62194,0.375612964
1669.37146,0.403094851
1669.87114,0.423094036
1670.37082,0.444588147
1670.8705,0.467725764
1671.12034,0.479962257
1671.62002,0.505884494
1672.1197,0.533907738
1672.36955,0.548776531
1672.86923,0.580382831
1673.36891,0.614710503
1673.61875,0.63298964
1674.11843,0.671990707
1674.36827,0.692806235
1674.86795,0.737325808
1675.24271,0.773469947
1675.61747,0.812214449
1675.99223,0.853800093
1676.36699,0.898494008
1676.74175,0.946592812
1677.11651,0.99842609
1677.49127,1.05436026
1677.86603,1.11480279
1678.24079,1.18020681
1678.49063,1.22681238
1678.74047,1.27600857
1679.11523,1.35504537
1679.36507,1.41150887
1679.61491,1.47122947
1679.86475,1.53442793
1680.11459,1.60133954
1680.36443,1.67221448
1680.61427,1.747318
1680.86411,1.82693038
1681.11395,1.91134647
1681.36379,2.00087481
1681.61363,2.09583612
1681.86347,2.19656103
1682.11331,2.30338677
1682.36315,2.41665269
1682.73791,2.59935749
1682.98775,2.73016222
1683.36252,2.94058214
1683.73728,3.16871788
1684.162,3.449171
1684.46181,3.66102178
1684.86156,3.96040416
1685.46117,4.44016819
1686.56047,5.35598859
1686.96021,5.66897353
1687.26002,5.88367117
1687.45989,6.0136937
1687.65977,6.13099377
1687.85964,6.23372855
1688.05951,6.32019078
1688.25938,6.38887434
1688.45926,6.43853646
1688.65913,6.46825194
1688.84901,6.47748671
1689.05887,6.4659674
1689.25874,6.43400359
1689.45862,6.38216399
1689.65849,6.31140536
1689.85836,6.2229978
