energy [eV],cross section [b]
1e-05,6.41842259
1.09247648e-05,6.14076202
1.15412747e-05,5.97449815
1.21577845e-05,5.82104696
1.32345831e-05,5.57921631
1.43873985e-05,5.35102775
1.5540214e-05,5.14872684
1.69773183e-05,4.92599327
1.79353878e-05,4.79261984
1.93724921e-05,4.61143012
2.05668254e-05,4.47553293
2.23583252e-05,4.29248479
2.35526585e-05,4.18223509
2.48942554e-05,4.06798037
2.71275462e-05,3.89693516
2.86164068e-05,3.79420591
3.01052673e-05,3.6991949
3.28892965e-05,3.53916807
3.47453159e-05,3.44334359
3.66013353e-05,3.35490357
3.98430662e-05,3.21552695
4.33136479e-05,3.08401282
4.67842296e-05,2.96741878
4.96685236e-05,2.8799701
5.25528175e-05,2.7998233
5.68792584e-05,2.69123545
6.19169775e-05,2.57943044
6.55125497e-05,2.5076474
6.91081219e-05,2.44154202
7.2703694e-05,2.38040326
7.94270757e-05,2.27742739
8.39093302e-05,2.21576517
8.83915847e-05,2.15885479
9.6220308e-05,2.06916717
0.000104601702,1.984539
0.000112983096,1.90951177
0.000123431375,1.8269067
0.000130396895,1.77744258
0.000140845174,1.71024488
0.000149528418,1.65984479
0.000162553284,1.59195788
0.00017557815,1.53177264
0.000186402716,1.4866321
0.000197227282,1.44526075
0.000208051848,1.40716167
0.000218876414,1.37192504
0.000232370361,1.33149518
0.000252611282,1.27703778
0.000266105228,1.24423815
0.000281263006,1.21024703
0.000306495417,1.15936057
0.000331727828,1.11439654
0.000361108514,1.06810036
0.000392563337,1.02441586
0.000424018161,0.985687312
0.000450159299,0.95663987
0.000489371006,0.917514138
0.000515512144,0.893948762
0.000544876536,0.869527343
0.000577464181,0.844636828
0.000610051827,0.821768361
0.000642639473,0.800662202
0.00067924524,0.778789337
0.000740181071,0.746044555
0.000780804959,0.726378154
0.000821428847,0.708189337
0.000897391696,0.677553982
0.000973354544,0.650578881
0.00105556164,0.624732796
0.00115025722,0.598465784
0.00124495281,0.575255887
0.0013158673,0.559541107
0.0013945659,0.543524483
0.00151261379,0.521885805
0.00159131239,0.508817896
0.00168941836,0.493824037
0.00178752434,0.480082174
0.00188563032,0.46742724
0.0019837363,0.455723113
0.0021060356,0.442294036
0.00228948455,0.424205649
0.0024729335,0.408169411
0.00270162169,0.390513554
0.00293030987,0.374967227
0.00317779653,0.360071615
0.00336785226,0.349765389
0.00365293585,0.335841569
0.00396145369,0.322500567
0.00419837792,0.313269978
0.00443530214,0.30478929
0.00479068847,0.293268213
0.00508603914,0.284627142
0.00538138982,0.276707631
0.00567674049,0.269414549
0.00597209116,0.262669443
0.00652436913,0.251308758
0.00689255444,0.244506005
0.00726073975,0.238227527
0.00790381367,0.228333076
0.00859228557,0.218996895
0.00928075746,0.210719987
0.00985292532,0.20451215
0.0107111771,0.196150541
0.0115694289,0.188737653
0.0122826956,0.183177862
0.0129959623,0.178082371
0.0140658624,0.171178788
0.0148670762,0.166504632
0.0157562373,0.16174076
0.0166453984,0.157363958
0.0175345595,0.153324504
0.0190875718,0.146958679
0.0201960035,0.142871673
0.0213044352,0.139107999
0.0231346502,0.133496321
0.0253,0.127660534
0.0272799763,0.122944666
0.029662495,0.117908637
0.0313850217,0.114630738
0.0339688116,0.110189802
0.0359037291,0.10718308
0.0380510376,0.10411871
0.0412720003,0.0999788876
0.0434193088,0.0974789013
0.0460961521,0.0946105814
0.0487729953,0.0919818849
0.0514498385,0.089561216
0.0557951634,0.0860094425
0.0608006084,0.0824001104
0.0641375718,0.0802325136
0.0674745351,0.0782278878
0.0737143426,0.0748517776
0.0799541501,0.0718793558
0.086706878,0.0690316578
0.0944854466,0.0661379414
0.102264015,0.0635813541
0.108089136,0.0618505623
0.114553666,0.0600867117
0.12425046,0.0577040537
0.13071499,0.0562653332
0.138773698,0.0546147794
0.146832406,0.0531022574
0.154891114,0.0517095635
0.167972831,0.049666357
0.183041857,0.0475903809
0.193087874,0.0463438315
0.203133891,0.0451911404
0.221918999,0.0432501504
0.240704106,0.0415416278
0.261033374,0.0399051737
0.2766451,0.0387732722
0.292256826,0.0377336096
0.315674414,0.0363216971
0.335136054,0.0352631279
0.364328512,0.0338378886
0.383790151,0.0329798425
0.405651449,0.0320909534
0.429912405,0.0311853624
0.454173361,0.0303537007
0.5,0.028952148
0.541827504,0.0278322783
0.597597509,0.0265273017
0.649242055,0.025473088
0.705795123,0.0244551366
0.76234819,0.0235536094
0.832847467,0.0225621886
0.879846986,0.0219691771
0.950346263,0.0211644429
1.00893605,0.0205616066
1.09682072,0.0197507296
1.15541051,0.0192630269
1.22122453,0.0187582108
1.29426279,0.0182443879
1.36730104,0.0177729782
1.4403393,0.01733852
1.52238332,0.0168889682
1.65895799,0.0162174209
1.84105755,0.0154435486
2.01131207,0.0148195406
2.18156659,0.0142720413
2.36581626,0.0137494288
2.57805622,0.0132205763
2.79029617,0.0127554637
2.94923588,0.0124418702
3.125622,0.0121234792
3.39020117,0.0116955281
3.56658728,0.01143845
3.7864709,0.0111449036
4.00635453,0.0108773399
4.22623815,0.010632317
4.44612178,0.0104069987
4.72022957,0.0101501673
4.99433737,0.00991654333
5.26844516,0.00970305398
5.71340489,0.00939302957
6.22596067,0.0090825
6.90936839,0.00873031051
7.54832246,0.0084517106
8.18727653,0.00821211292
8.87875346,0.00798850964
9.40976857,0.00783778729
10.2062912,0.00764022588
10.7373063,0.00752479484
11.2529798,0.00742347595
12.2843266,0.00724826527
13.0925842,0.00713276681
14.2103773,0.00699932058
15.860795,0.0068480843
17.7147124,0.00673018441
19.7721296,0.00665036207
21.8756287,0.0066138096
24.0252096,0.00661597197
25.930407,0.0066471582
28.3283598,0.00672181105
30.7263126,0.00683339472
33.5937108,0.0070136234
36.1312369,0.00721571625
38.8482037,0.00747808895
41.4718565,0.0077795661
43.8227546,0.00809339498
46.1736528,0.00845276484
47.3491019,0.00865110704
49.7,0.00908893933
52.16,0.00961257644
53.39,0.00990257842
54.62,0.0102133286
56.769425,0.0108113443
57.999425,0.0111884041
59.54,0.0117007398
60.77,0.0121449998
62.0,0.0126237693
62.9749398,0.0130300159
64.2263,0.0135894121
65.1242,0.0140194089
66.92,0.0149594421
68.128475,0.0156592249
69.358475,0.0164343518
70.5992375,0.0172881911
71.84,0.0182232578
73.1684,0.0193263373
74.2016,0.0202665845
75.2348,0.0212878461
75.7514,0.0218317825
76.7846,0.0229928889
78.0641835,0.0245816036
79.22,0.0261807594
79.835,0.0271033642
80.7206,0.0285295666
81.4709,0.0298371563
81.9506,0.0307254675
82.91,0.0326371237
83.59265,0.034118206
84.548975,0.0363840948
85.37,0.0385299334
85.985,0.040274055
86.90135,0.0431182627
87.667025,0.0457495643
88.3635125,0.0483726834
88.8278375,0.050256933
89.247575,0.052062498
89.8103,0.0546492582
90.237725,0.0567526499
90.66515,0.0589867221
91.092575,0.0613626056
91.52,0.0638926472
91.98125,0.0668116864
92.3933,0.0696004169
92.9099,0.0733626913
93.4265,0.0774531388
93.9431,0.081911337
94.45355,0.0867224085
94.95785,0.0919219935
95.456,0.0975501695
95.702,0.100529348
96.0464,0.104943515
96.5261,0.1116112
96.809,0.115856117
97.178,0.121779386
97.6946,0.130892504
97.9283,0.135365214
98.285,0.142660898
98.531,0.148051754
98.9,0.156746457
99.146,0.162987426
99.515,0.173091159
99.761,0.180371872
100.13,0.192208108
100.499,0.205278732
100.868,0.219762394
101.114,0.230306396
101.483,0.247636874
101.852,0.267043442
101.975,0.274031589
102.221,0.288872917
102.467,0.304976908
102.713,0.322491523
102.959,0.341587083
103.205,0.36246045
103.451,0.385340158
103.66625,0.407214176
103.943,0.438230527
104.21975,0.472986443
104.312,0.485507692
104.4965,0.512110147
104.58875,0.52624977
104.77325,0.556367722
104.8655,0.572417951
105.05,0.606701093
105.173,0.631317556
105.3575,0.671183753
105.4805,0.699920965
105.665,0.746655031
105.788,0.780489188
105.9725,0.835768319
106.0955,0.875983029
106.28,0.942029945
106.403,0.990340186
106.4645,1.01591349
106.5875,1.07015084
106.649,1.09892701
106.772,1.16010419
106.895,1.22657979
107.018,1.29898491
107.0795,1.33763429
107.2025,1.42033397
107.3255,1.51100637
107.4485,1.61071193
107.5715,1.72069358
107.6945,1.84241569
107.8175,1.97761329
107.879,2.05089657
107.9405,2.12835428
108.002,2.21030998
108.0635,2.29711922
108.125,2.38917342
108.201875,2.51227875
108.263375,2.61778207
108.34025,2.75932482
108.417125,2.91272477
108.494,3.07934562
108.551656,3.21392071
108.609313,3.35755505
108.668891,3.51637956
108.728949,3.68821991
108.788047,3.8699596
108.849547,4.07378908
108.912969,4.30139728
108.974469,4.54089717
109.039813,4.81804614
109.101313,5.10282468
109.1705,5.45456207
109.235844,5.82136384
109.270438,6.03076963
109.308875,6.27701361
109.339625,6.4850641
109.378062,6.76004258
109.408813,6.99285117
109.44725,7.3012165
109.485688,7.63049166
109.524125,7.98261127
109.554875,8.28220038
109.593312,8.68106724
109.624063,9.02132638
109.6625,9.47559725
109.69325,9.86423504
109.731687,10.3846664
109.770125,10.9474779
109.808562,11.5573989
109.847,12.2198369
109.885437,12.9409979
109.923875,13.7280316
109.962312,14.5892095
110.00075,15.5341424
110.023813,16.1458951
110.046875,16.7945467
110.085313,17.9659924
110.108375,18.7287155
110.131438,19.5410954
110.169875,21.0175918
110.192937,21.9852989
110.216,23.0214359
110.239063,24.1326036
110.262125,25.3262172
110.285188,26.6106298
110.30825,27.9952782
110.331312,29.4908558
110.3513,30.8861058
110.372825,32.5023224
110.4005,34.7735632
110.4251,36.9982581
110.4497,39.4432626
110.4743,42.1385913
110.4866,43.5909202
110.50505,45.9141285
110.52965,49.3116496
110.54195,51.1533367
110.5604,54.1151015
110.5727,56.2345317
110.585,58.4806554
110.5973,60.8637412
110.61575,64.7202723
110.62805,67.4979632
110.6465,72.0110401
110.6588,75.2750893
110.67725,80.6018798
110.68955,84.4721884
110.708,90.8195733
110.72645,97.906521
110.7326,100.453057
110.7449,105.851811
110.75105,108.714953
110.76335,114.798888
110.7695,118.03298
110.7818,124.922222
110.78795,128.593688
110.80025,136.43565
110.8064,140.626332
110.8187,149.603432
110.82485,154.415043
110.83715,164.755048
110.846375,173.200391
110.8556,182.305278
110.864825,192.139394
110.877125,206.524
110.88635,218.385926
110.8925,226.863291
110.89865,235.837167
110.907875,250.315162
110.914025,260.709192
110.920175,271.753792
110.926325,283.503423
110.932475,296.01825
110.938625,309.364855
110.944775,323.617061
110.950925,338.856867
110.957075,355.175531
110.963225,372.674818
110.969375,391.468435
110.975525,411.683699
110.981675,433.463462
110.987825,456.968358
110.9909,469.423422
110.99705,495.862616
111.0032,524.524503
111.006275,539.764716
111.012425,572.232949
111.018575,607.604276
111.02165,626.483104
111.0278,666.861718
111.03395,711.08684
111.037025,734.787952
111.043175,785.696744
111.04625,813.050601
111.0524,871.963243
111.057012,920.185471
111.061625,972.248253
111.066237,1028.53484
111.07085,1089.4714
111.075463,1155.53163
111.078537,1202.67569
111.081613,1252.49924
111.086225,1332.65929
111.0893,1390.00358
111.092375,1450.71869
111.096987,1548.61263
111.100063,1618.77931
111.103138,1693.17228
111.10775,1813.28969
111.110825,1899.47471
111.1139,1990.89484
111.116975,2087.85709
111.12005,2190.6706
111.123125,2299.64114
111.1262,2415.06392
111.129275,2537.21436
111.133888,2733.57577
111.1385,2946.22209
111.14342,3191.24268
111.14834,3454.6022
111.15326,3734.79945
111.15818,4028.89695
111.17171,4862.45161
111.17663,5147.78938
111.18032,5343.75644
111.18278,5462.57115
111.18524,5569.88711
111.1877,5664.0241
111.19016,5743.42287
111.19262,5806.70486
111.19508,5852.72889
111.19754,5880.64093
111.2,5889.91288
111.20246,5880.36723
111.20492,5852.18546
111.20738,5805.89949
111.20984,5742.36682
111.2123,5662.73166
111.21476,5568.37507
111.21722,5460.85819
111.21968,5341.8625
111.22337,5145.66268
111.22829,4860.08624
111.24182,4026.23705
111.24674,3732.13034
111.25166,3451.95791
111.25412,3318.0727
111.25904,3063.82786
111.263037,2871.00055
111.26765,2663.90382
111.270725,2534.83353
111.2738,2412.73593
111.276875,2297.3665
111.281487,2136.3184
111.284563,2036.52168
111.287638,1942.42084
111.29225,1811.27477
111.295325,1730.07277
111.2984,1653.51192
111.303013,1546.76235
111.307625,1448.93357
111.312237,1359.20053
111.31685,1276.80755
111.321463,1201.06672
111.326075,1131.35456
111.32915,1087.94854
111.333763,1027.05997
111.338375,970.818821
111.344525,902.329865
111.350675,840.457444
111.35375,811.756045
111.3599,758.387492
111.36605,709.884418
111.369125,687.283971
111.375275,645.077868
111.381425,606.50101
111.387575,571.165116
111.393725,538.730197
111.399875,508.8979
111.406025,481.405836
111.412175,456.022723
111.418325,432.544242
111.424475,410.78949
111.430625,390.597939
111.436775,371.826831
111.442925,354.348938
111.449075,338.05063
111.4583,315.595346
111.46445,301.823719
111.4706,288.91901
111.479825,271.036087
111.485975,260.00693
111.492125,249.627698
111.50135,235.170773
111.510575,221.918271
111.5198,209.741672
111.5321,194.98826
111.53825,188.182093
111.55055,175.586115
111.5567,169.752398
111.569,158.916511
111.57515,153.879996
111.58745,144.493533
111.59975,135.933612
111.6059,131.933842
111.6182,124.442388
111.6305,117.566891
111.63665,114.33938
111.64895,108.268066
111.66125,102.664785
111.67355,97.4829055
111.692,90.4118812
111.7043,86.1145574
111.7166,82.1149025
111.7289,78.3861709
111.7412,74.9045416
111.7535,71.6487447
111.7658,68.5997414
111.7781,65.7404499
111.7904,63.0555103
111.8027,60.5310806
111.815,58.1546612
111.8273,55.9149421
111.8396,53.8016697
111.8519,51.8055313
111.87035,49.012622
111.8888,46.4388606
111.9134,43.3099692
111.938,40.4859968
111.9503,39.1761525
111.9749,36.739642
111.99335,35.0579613
112.008725,33.7429612
112.027175,32.2600767
112.0487,30.650014
112.061,29.7833734
112.09175,27.7706022
112.107125,26.8396798
112.137875,25.1126085
112.168625,23.5466214
112.184,22.8178562
112.21475,21.4580307
112.2455,20.2159498
112.27625,19.0784207
112.307,18.0340457
112.33775,17.0729372
112.3685,16.1864844
112.39925,15.3671603
112.43,14.608362
112.46075,13.9042784
112.506875,12.9396825
112.537625,12.3512013
112.568375,11.8018768
112.6145,11.0439827
112.660625,10.3566512
112.70675,9.7313956
112.752875,9.16096709
112.799,8.6391441
112.845125,8.16056263
112.89125,7.72057824
112.95275,7.18706933
112.9835,6.94076449
113.045,6.48457904
113.07575,6.27312556
113.1065,6.07182081
113.152625,5.78750931
113.19875,5.52265579
113.2295,5.35603232
113.291,5.04457476
113.32175,4.89890736
113.38325,4.62582931
113.414,4.49774915
113.4755,4.25700044
113.537,4.03502054
113.56775,3.93046571
113.62925,3.73315202
113.7215,3.46383588
113.783,3.30011493
113.8445,3.14769623
113.906,3.00556402
113.9675,2.87281409
114.029,2.74863937
114.0905,2.63231773
114.152,2.5232014
114.2135,2.42070807
114.275,2.324313
114.3365,2.23354243
114.398,2.14796767
114.4595,2.06720011
114.521,1.99088677
114.61325,1.88407369
114.7055,1.7855994
114.8285,1.66582695
114.9515,1.55766797
115.0745,1.45967017
115.1975,1.37060126
115.259,1.32908048
115.35125,1.27023476
115.4435,1.21519585
115.5665,1.14718259
115.628,1.11528805
115.751,1.05534643
115.8125,1.0271636
115.9355,0.974067268
115.997,0.949042798
116.1815,0.879469471
116.366,0.81724293
116.5505,0.761366012
116.6735,0.727224881
116.858,0.680144535
116.981,0.651241364
117.1655,0.611207472
117.2885,0.586525503
117.44225,0.55771102
117.5345,0.541425459
117.719,0.510914531
117.81125,0.496613069
117.99575,0.469747094
118.088,0.457120974
118.2725,0.433343382
118.36475,0.422141605
118.6415,0.391014904
118.826,0.372131607
119.072,0.349003353
119.318,0.327960332
119.564,0.30876031
119.81,0.291195213
120.056,0.275085513
120.302,0.260275657
120.548,0.246630324
120.794,0.234031356
121.163,0.216871805
121.313412,0.210416064
121.545706,0.201000182
121.901,0.187781905
122.27,0.175396528
122.639,0.164207629
123.008,0.154067903
123.377,0.144852102
123.746,0.136453208
123.992,0.131261865
124.35485,0.124142141
124.7054,0.117815519
125.09285,0.111388381
125.468,0.105673358
125.714,0.102172532
126.0338,0.0978894547
126.3536,0.0938863053
126.698,0.0898625225
127.19,0.0845829984
127.6943,0.0796843667
127.94645,0.0774112975
128.51145,0.0727036496
129.13715,0.0680506795
129.622212,0.0648040265
130.13885,0.0616570152
130.655487,0.0588020974
131.256538,0.0558154816
131.725213,0.0537165277
132.376671,0.0511078266
132.819569,0.0495269393
133.367919,0.0477742811
133.761606,0.0466507865
134.352136,0.0451715055
134.745823,0.0443212384
135.130136,0.0435963882
135.51445,0.0429769167
136.151848,0.0421895854
136.395559,0.0419712067
136.82674,0.0417037869
137.407897,0.0416025095
137.95156,0.0418093656
138.3265,0.0421453517
138.51397,0.0423793077
138.88891,0.0429934481
139.07638,0.0433804005
139.45132,0.0443341731
139.63879,0.0449105553
140.01373,0.0462909115
140.294935,0.0475527677
140.482405,0.0485174266
140.76361,0.0501746284
140.95108,0.0514368383
141.232285,0.0536014204
141.419755,0.0552497737
141.607225,0.0570854097
141.794695,0.0591316988
142.029032,0.062027808
142.239936,0.0650050752
142.45084,0.0683921675
142.661744,0.072258019
142.872647,0.0766869996
143.060117,0.0811802632
143.247587,0.0862902182
143.341322,0.0891099061
143.481925,0.093714876
143.57566,0.0970619128
143.669395,0.100654847
143.76313,0.104517287
143.903732,0.110875199
143.997467,0.115534942
144.13807,0.123246246
144.231805,0.128929747
144.372407,0.138393298
144.466142,0.145413773
144.536444,0.151101206
144.606745,0.157187361
144.70048,0.1659879
144.747347,0.170710301
144.841082,0.180870686
144.934818,0.192094591
144.981685,0.198151763
145.07542,0.211264067
145.122287,0.218368144
145.216023,0.23381208
145.286324,0.246604188
145.356625,0.260573011
145.403492,0.270611314
145.45036,0.281287276
145.497228,0.292655716
145.567529,0.311141704
145.614396,0.324522709
145.661264,0.338841116
145.708131,0.354186135
145.778433,0.379350848
145.8253,0.39772809
145.895601,0.428033206
145.942469,0.450293367
145.965902,0.462107864
146.01277,0.487233783
146.059638,0.514547988
146.083071,0.529105757
146.129939,0.560203889
146.153372,0.576825071
146.20024,0.612437639
146.223674,0.631530277
146.270541,0.67257286
146.317409,0.717861663
146.340842,0.742283468
146.38771,0.795110596
146.411144,0.823711027
146.446294,0.869655256
146.469728,0.902495775
146.504879,0.955423679
146.528312,0.993383991
146.563463,1.0547832
146.598614,1.12214753
146.633764,1.19627418
146.668915,1.27809802
146.704066,1.36872108
146.739216,1.4694497
146.76265,1.54297356
146.786084,1.62221041
146.797801,1.6641577
146.821234,1.75312679
146.832951,1.80033226
146.856385,1.90069226
146.868102,1.95407122
146.891536,2.06784934
146.914969,2.19192657
146.938403,2.32758225
146.95012,2.40020672
146.973554,2.55608744
146.996987,2.72773171
147.020421,2.91733451
147.043855,3.12748583
147.062602,3.31244814
147.083692,3.54089198
147.095409,3.67818358
147.109469,3.85375636
147.128217,4.10813226
147.13759,4.24488065
147.156337,4.53970118
147.175084,4.86634969
147.189144,5.13504013
147.203204,5.42660511
147.212578,5.63498923
147.226638,5.97078955
147.240699,6.33748473
147.254759,6.73896854
147.268819,7.17976544
147.282879,7.66515662
147.29694,8.20133641
147.311,8.79560746
147.32506,9.45662607
147.33912,10.194713
147.343807,10.4599398
147.353181,11.02225
147.362554,11.6308956
147.371927,12.2910733
147.376614,12.6423105
147.385988,13.3911914
147.395361,14.2081413
147.404735,15.1015908
147.414108,16.0813044
147.423482,17.1586384
147.432855,18.3468601
147.442229,19.6615409
147.451602,21.1210478
147.456289,21.9117632
147.460976,22.7471579
147.465662,23.6306141
147.470349,24.5658351
147.475036,25.556882
147.482066,27.1580042
147.486753,28.309122
147.49144,29.5337504
147.496126,30.8381638
147.503156,32.9597749
147.507843,34.4957094
147.514873,37.0044784
147.51956,38.8286409
147.52659,41.8220475
147.531277,44.0090386
147.53362,45.1657036
147.538307,47.6161522
147.54065,48.9146515
147.545337,51.6711175
147.547681,53.1347491
147.552367,56.2483658
147.554711,57.9051904
147.559397,61.4377023
147.561741,63.3216888
147.566428,67.3480293
147.568771,69.5005037
147.573458,74.1120602
147.578144,79.1744956
147.582831,84.7448011
147.585175,87.7405087
147.589861,94.1984876
147.594548,101.347148
147.599235,109.279737
147.601578,113.572967
147.603922,118.103682
147.606265,122.887857
147.608608,127.942616
147.610952,133.286289
147.613295,138.938481
147.615638,144.920131
147.617982,151.253554
147.620325,157.962489
147.622669,165.072107
