energy [eV],cross section [b]
1e-05,158978.015
1.08503762e-05,152620.989
1.17007524e-05,146970.225
1.26154077e-05,141541.948
1.36586211e-05,136029.119
1.43540967e-05,132692.705
1.54761656e-05,127791.734
1.63293522e-05,124408.359
1.7609132e-05,119802.107
1.95089796e-05,113819.127
2.16023017e-05,108163.696
2.39329721e-05,102761.897
2.65009906e-05,97655.8272
2.85725899e-05,94048.8383
3.09353602e-05,90385.6609
3.40857205e-05,86107.1875
3.6984289e-05,82663.853
3.98828575e-05,79603.0645
4.30005259e-05,76662.7819
4.53711047e-05,74632.9608
4.89269729e-05,71869.4812
5.42056995e-05,68280.0356
6.0021995e-05,64887.0882
6.64977625e-05,61646.2924
7.36330019e-05,58582.9046
7.93889406e-05,56418.8813
8.59538977e-05,54221.1385
9.47071738e-05,51654.2326
0.000102760846,49588.3635
0.000110814519,47751.9974
0.000119476961,45987.9208
0.000126063614,44770.086
0.000135943593,43112.0679
0.000146570391,41519.3155
0.000154650679,40419.7527
0.000166771112,38922.7529
0.000174851401,38012.433
0.000184764032,36978.2989
0.000194676663,36024.1811
0.000214501926,34318.343
0.000232742659,32945.4538
0.000250983392,31725.0695
0.000270602924,30552.7134
0.000292980053,29362.0712
0.000307898139,28641.4703
0.000331966733,27582.9347
0.000350267748,26852.1615
0.000377719272,25857.2371
0.000407245828,24901.4583
0.00042969691,24241.6212
0.000463373532,23343.2692
0.000485824614,22796.9744
0.00051336686,22176.3667
0.000540909105,21603.768
0.000595993597,20580.0085
0.000646675474,19756.0391
0.00069735735,19023.574
0.00077259517,18072.1274
0.000814045072,17605.2433
0.000896944876,16770.4747
0.000973218933,16098.5953
0.00104949299,15501.3143
0.00116272269,14725.4416
0.00128748335,13991.9561
0.00138812675,13473.7533
0.00146465288,13115.9803
0.00157944207,12628.8472
0.0016559682,12332.5969
0.00179678779,11837.7099
0.00193760739,11397.7406
0.00214665567,10826.1702
0.00226182422,10545.6646
0.00249216132,10044.0762
0.00270408879,9640.30418
0.00291601626,9281.31266
0.00314396311,8936.3778
0.00331728685,8698.20353
0.00357727247,8373.87264
0.00375059622,8176.60612
0.00396322407,7952.4668
0.00417585191,7745.62731
0.00460110761,7375.71157
0.00486195244,7173.16452
0.00512279726,6986.24175
0.00564448691,6651.92171
0.00612448065,6382.72291
0.00660447438,6143.31563
0.00712075035,5913.21904
0.00751331066,5754.29942
0.00810215112,5537.83449
0.00873550144,5329.76537
0.00945787147,5118.31275
0.0099394515,4990.26266
0.0107164248,4802.04922
0.0113072112,4672.02846
0.012193391,4494.88576
0.0135089348,4264.55273
0.0149584495,4046.53806
0.0165723152,3837.99442
0.0183505319,3640.54953
0.0197850047,3500.85937
0.0214210979,3358.78982
0.0225118267,3272.69845
0.0244512778,3133.90536
0.026213709,3021.1922
0.0280411269,2915.56221
0.029775586,2824.29416
0.0314170862,2744.85652
0.0347000867,2602.94076
0.0365277059,2532.20843
0.0385414442,2460.05753
0.0425689207,2331.11135
0.0448109836,2266.81852
0.0472813713,2201.21821
0.0509869527,2111.68904
0.0549726353,2025.4266
0.0595185203,1937.53581
0.0640644052,1858.90903
0.0692975279,1777.87186
0.0730153557,1725.50748
0.0785920972,1653.81626
0.0850119194,1579.89475
0.0895728277,1532.11057
0.094133736,1487.71716
0.0986946443,1446.32388
0.104289816,1399.16128
0.109884988,1355.50996
0.11548016,1314.94661
0.121075331,1277.11674
0.131371289,1213.67673
0.141667247,1157.00623
0.152741466,1102.30682
0.165372208,1046.48257
0.178002949,996.470489
0.187378188,962.534508
0.197708172,927.86371
0.213203149,880.481257
0.223533133,851.567131
0.236205617,818.628993
0.2488781,788.155336
0.261550584,759.854471
0.274223068,733.481575
0.289769252,703.459601
0.313088529,662.597347
0.339805854,620.963513
0.365673497,585.034458
0.389183744,555.523902
0.41269399,528.578411
0.447788504,492.416621
0.471184847,470.628986
0.49458119,450.448491
0.520630292,429.656351
0.549332153,408.556078
0.578034015,389.130118
0.621086806,362.71567
0.656297302,343.218729
0.67390255,334.098219
0.709113045,316.985245
0.744323541,301.229859
0.761928789,293.812802
0.805123862,276.78727
0.848318936,261.257485
0.89151401,247.041277
0.934709083,233.985273
0.987699373,219.363658
1.04068966,206.091065
1.06718481,199.906862
1.1201751,188.350394
1.14667024,182.945637
1.21167698,170.629905
1.27668372,159.512001
1.30918709,154.35289
1.37419383,144.749958
1.44657126,135.061634
1.52631938,125.452694
1.6060675,116.81339
1.64594156,112.816655
1.72568968,105.399444
1.77460586,101.196127
1.84798013,95.3337601
1.9213544,89.9509234
1.97027058,86.6033624
2.01918677,83.4327936
2.09256104,78.9823688
2.1470235,75.8968968
2.20703226,72.6941504
2.26704102,69.6821277
2.32704977,66.8461118
2.38705853,64.1727859
2.44706728,61.6500737
2.50707604,59.2670029
2.59708917,55.9326152
2.70751431,52.1969203
2.81793945,48.807552
2.92836459,45.7236328
3.00198135,43.8198696
3.11240649,41.1696123
3.18602325,39.5278826
3.27633386,37.6382798
3.36664448,35.8745835
3.45695509,34.2260788
3.5472657,32.6831582
3.63757631,31.2371875
3.72788692,29.8803897
3.86335284,27.9972225
4.01929822,26.031339
4.18548333,24.1451292
4.35166844,22.4470115
4.46245852,21.4076099
4.62864363,19.9722676
4.73943371,19.0900895
4.8455,18.296392
4.9750797,17.3887862
5.1046594,16.543697
5.2342391,15.755663
5.3638188,15.0197985
5.49339851,14.3317222
5.62297821,13.6874965
5.75255791,13.0835753
5.96550477,12.1703435
6.1322391,11.5171827
6.21560626,11.209144
6.38234059,10.6272018
6.63244208,9.83178068
6.7991764,9.3477345
7.04927789,8.68295789
7.21601222,8.27655143
7.44738493,7.75607372
7.6016334,7.43462248
7.83300611,6.98697361
7.98725458,6.70960436
8.14150305,6.44767617
8.29575153,6.20009842
8.45,5.96587344
8.65118278,5.67894134
8.80206986,5.47652056
8.97782957,5.25350403
9.2287576,4.95701905
9.35422162,4.81770738
9.60514965,4.5554446
9.85607768,4.31320582
9.9815417,4.19898438
10.2324697,3.98324029
10.4833978,3.78311141
10.7343258,3.5971726
10.9623029,3.43947374
11.2698424,3.24213804
11.5773818,3.06080204
11.782408,2.94798638
12.0899475,2.78979259
12.2949737,2.69111555
12.6028039,2.55227522
12.9112158,2.42344086
13.3224316,2.26601503
13.7582072,2.11509434
14.1939829,1.97857531
14.4845,1.89470556
14.9492548,1.77115069
15.4140096,1.6592747
15.8787644,1.55770128
16.2273305,1.48756449
16.5751549,1.42225115
17.0384262,1.34184263
17.5016976,1.26821264
17.9649689,1.20065011
18.1966045,1.16894677
18.6598759,1.10934427
18.8915115,1.08131748
19.5864185,1.00364893
20.1872674,0.943447654
20.6,0.905408335
20.9088125,0.878558785
21.5264375,0.828646583
22.1440625,0.783302193
22.7616875,0.742017551
23.4519494,0.700142806
24.2148482,0.65848817
24.5962975,0.639296551
25.3657418,0.603560385
25.8787046,0.581753027
26.3916674,0.561409208
26.9046302,0.542414709
27.417593,0.524666389
27.9305558,0.50807095
28.4435186,0.492543861
29.0684814,0.474959663
30.1739258,0.447085885
31.118211,0.426171244
32.297844,0.403301477
33.477477,0.3835898
34.65711,0.366628422
35.443532,0.35668089
36.623165,0.343589157
37.529,0.334893868
38.35925,0.327872097
39.604625,0.318903818
40.85,0.311661389
42.065,0.306125876
43.037,0.302715794
44.507234,0.29918127
45.4104679,0.29793973
46.52,0.297353452
48.1805,0.298375147
49.8005,0.301559722
51.38,0.306787099
52.19,0.310308999
53.405,0.316710458
54.215,0.321757835
55.025,0.327462106
55.7080629,0.332807826
57.05,0.344832889
57.86,0.353140712
58.67,0.362305163
59.48,0.372390083
60.29,0.3834684
61.1,0.395623383
61.91,0.408950147
62.72,0.423557437
63.53,0.43956977
64.34,0.457129998
65.15,0.476402403
65.96,0.497576435
66.365,0.508943748
67.1627031,0.533002714
67.9481092,0.559070717
68.39,0.574883277
68.9975,0.59809977
69.90875,0.636480768
70.82,0.679730553
71.73125,0.72865796
72.035,0.746393668
72.6425,0.784252089
73.4525,0.840245473
73.8575,0.870897228
74.465,0.92061657
74.87,0.95650963
75.275,0.994827485
75.68,1.03579009
76.2875,1.10273837
76.6925,1.15145353
77.3,1.23147142
77.705,1.29000307
78.3125,1.38669472
78.7175,1.45784808
78.92,1.49565605
79.325,1.57616097
79.5275,1.6190471
79.9325,1.71061307
80.135,1.75952753
80.54,1.86427522
80.7425,1.92040224
81.1475,2.04098819
81.35,2.10581894
81.755,2.24560689
81.9575,2.32104021
82.3625,2.48433986
82.565,2.57282384
82.86875,2.71507584
83.07125,2.81683972
83.27375,2.92466168
83.47625,3.0390334
83.78,3.22407444
84.0116261,3.3771878
84.28625,3.57378033
84.48875,3.73031074
84.7925,3.98574155
84.995,4.17132713
85.29875,4.4757085
85.6025,4.81561543
85.90625,5.1968151
86.10875,5.47728039
86.21,5.62629617
86.4125,5.94357872
86.51375,6.11259308
86.71625,6.4734479
86.8175,6.66621548
87.02,7.07902279
87.2225,7.53214145
87.32375,7.77548178
87.52625,8.29955151
87.678125,8.72876307
87.83,9.19269153
87.981875,9.69519222
88.13375,10.2406713
88.285625,10.8341828
88.4375,11.4815467
88.589375,12.1894923
88.74125,12.9658343
88.9057812,13.8946656
89.0703125,14.9281852
89.1525781,15.4891966
89.2380078,16.1062735
89.3234375,16.7613408
89.4120312,17.4842081
89.4942969,18.1985365
89.5765625,18.9579481
89.6525,19.7023056
89.7410938,20.6279615
89.8296875,21.6209554
89.9182813,22.6879849
90.006875,23.8366013
90.0954688,25.075343
90.1840625,26.4138949
90.2726563,27.8632775
90.36125,29.4360745
90.4625,31.4032707
90.56375,33.5756029
90.665,35.9826081
90.7611875,38.5184735
90.80675,39.8146461
90.8675,41.6475964
90.908,42.9410633
90.96875,44.9976556
91.00925,46.4521844
91.07,48.7702908
91.1105,50.4137361
91.17125,53.0395792
91.232,55.8765668
91.29275,58.9479167
91.3535,62.2801197
91.41425,65.903507
91.475,69.8529361
91.53575,74.1686231
91.5965,78.8971592
91.65725,84.0927567
91.718,89.8187899
91.77875,96.1497078
91.8395,103.173428
91.88,108.291568
91.9205,113.799369
91.98125,122.881432
92.02175,129.551907
92.06225,136.778608
92.092625,142.601337
92.133125,150.958927
92.1635,157.716449
92.204,167.45175
92.2445,178.111323
92.285,189.814879
92.3255,202.701947
92.366,216.935894
92.4065,232.708919
92.447,250.248293
92.46725,259.762862
92.4875,269.824199
92.50775,280.474411
92.538125,297.656098
92.558375,309.990573
92.58875,329.958818
92.609,344.345247
92.639375,367.724027
92.659625,384.633743
92.69,412.227406
92.71025,432.271452
92.740625,465.129026
92.760875,489.109165
92.79125,528.615905
92.801375,542.824537
92.821625,572.96472
92.83175,588.956785
92.852,622.950895
92.862125,641.025872
92.882375,679.532287
92.8925,700.052069
92.91275,743.868404
92.922875,767.272502
92.943125,817.369848
92.963375,872.298992
92.983625,932.663981
92.9988125,981.918568
93.0190625,1053.52774
93.0393125,1132.74128
93.0595625,1220.58094
93.0696875,1268.09674
93.0798125,1318.22383
93.0899375,1371.13734
93.1000625,1427.02495
93.1101875,1486.08774
93.1203125,1548.54083
93.1304375,1614.61413
93.1405625,1684.55288
93.1506875,1758.61824
93.1608125,1837.08749
93.1709375,1920.25421
93.186125,2054.49346
93.19625,2150.79147
93.2114375,2306.30901
93.2215625,2417.88986
93.23675,2598.02663
93.2519375,2794.56693
93.267125,3008.6663
93.2823125,3241.32417
93.2924375,3407.11048
93.30155,3563.7437
93.3137,3783.5218
93.3218,3936.86539
93.338,4259.09076
93.3623,4775.60112
93.40685,5762.28252
93.42305,6099.8318
93.4352,6331.55449
93.4433,6471.9883
93.4514,6598.77508
93.4595,6709.92685
93.4676,6803.59977
93.4757,6878.16484
93.4838,6932.27497
93.4919,6964.92377
93.499595,6975.49225
93.51215,6949.60934
93.52025,6905.0068
93.52835,6839.43931
93.53645,6754.10358
93.54455,6650.507
93.55265,6530.40374
93.56075,6395.72513
93.5729,6170.84862
93.5891,5839.18092
93.6458,4588.26382
93.662,4247.63812
93.6701,4084.07281
93.6863,3772.28972
93.6944,3624.50417
93.7025,3482.27248
93.712625,3312.33053
93.72275,3151.04634
93.732875,2998.25891
93.7480625,2784.47672
93.7581875,2651.7831
93.7683125,2526.55837
93.7835,2351.93976
93.7986875,2192.08523
93.813875,2045.7731
93.8290625,1911.82762
93.8391875,1828.85015
93.854375,1713.08901
93.8645,1641.29601
93.8796875,1541.00517
93.8898125,1478.7137
93.905,1391.55552
93.915125,1337.32772
93.9303125,1261.31696
93.9404375,1213.9374
93.955625,1147.40157
93.96575,1105.84885
93.986,1028.86423
94.00625,959.234865
94.0265,896.105807
94.04675,838.734273
94.067,786.474097
94.08725,738.76226
94.1075,695.107276
94.12775,655.079247
94.137875,636.305716
94.158125,601.026136
94.178375,568.515333
94.198625,538.499606
94.20875,524.350711
94.229,497.633058
94.24925,472.856832
94.279625,438.946369
94.31,408.481697
94.340375,381.020547
94.37075,356.187961
94.401125,333.664629
94.4315,313.177453
94.45175,300.533323
94.482125,282.934726
94.5125,266.816097
94.542875,252.018156
94.563125,242.817339
94.5935,229.921114
94.61375,221.879074
94.65425,206.996758
94.69475,193.547104
94.715,187.303298
94.7555,175.680091
94.796,165.095901
94.81625,160.155488
94.85675,150.911464
94.89725,142.43839
94.93775,134.653455
94.97825,127.484605
95.01875,120.868916
95.05925,114.75125
95.09975,109.083136
95.14025,103.821826
95.18075,98.9295095
95.2415,92.2105611
95.282,88.1019775
95.3225,84.2601975
95.38325,78.9491937
95.42375,75.6809454
95.46425,72.610257
95.525,68.3410622
95.58575,64.4354218
95.6465,60.853348
95.70725,57.5601867
95.768,54.5257886
95.849,50.8374186
95.8895,49.131227
95.9705,45.965395
96.011,44.4953704
96.0515,43.0943557
96.11225,41.1130405
96.162875,39.5639098
96.223625,37.8171948
96.31475,35.4051442
96.385625,33.6842863
96.486875,31.4343819
96.588125,29.401412
96.689375,27.5584252
96.790625,25.8825222
96.891875,24.3541472
96.993125,22.9565197
97.04375,22.3021362
97.145,21.0741286
97.24625,19.9442533
97.3475,18.9023502
97.398125,18.4115686
97.55,17.0480308
97.701875,15.8296899
97.85375,14.7366839
98.005625,13.7524305
98.1575,12.8629982
98.25875,12.3168315
98.410625,11.5601602
98.5625,10.8706933
98.714375,10.2407202
98.815625,9.85047393
98.9675,9.30535832
99.06875,8.96653101
99.27125,8.34175079
99.47375,7.77962529
99.575,7.5194791
99.7775,7.03657921
99.98,6.59841268
100.1825,6.1996345
100.385,5.83567375
100.5875,5.50260302
100.79,5.19703273
100.9925,4.91602518
101.195,4.65702422
101.3975,4.41779729
101.6,4.19638755
101.8025,3.99107403
102.10625,3.71001115
102.30875,3.53867077
102.51125,3.37882586
102.71375,3.22947405
102.849999,3.13443719
102.850001,1.30249999
108.905682,1.24031796
114.994098,1.18394777
121.113855,1.13260471
127.263654,1.08563998
133.442424,1.04251141
139.648975,1.00276442
145.882317,0.966013159
152.141511,0.931928625
158.426252,0.900225734
164.735184,0.870663821
171.067564,0.843031332
177.422683,0.817143854
190.198626,0.769976762
203.058107,0.728086889
216.001255,0.69061694
229.019834,0.656908159
242.110404,0.626416982
255.269765,0.598700307
268.495318,0.573392531
281.784153,0.550190744
295.133874,0.528840502
308.542224,0.509126982
322.020178,0.490850452
335.552884,0.473873873
349.138566,0.458062199
362.77554,0.443298567
376.462355,0.429481176
390.197437,0.41652125
417.806997,0.392870768
445.595382,0.371824803
473.552362,0.352973222
501.669947,0.33598723
529.940736,0.320600928
558.415401,0.306569886
587.031137,0.293745871
615.782421,0.281978335
644.664068,0.271140898
673.67174,0.261126488
702.800657,0.251844165
732.046781,0.243215841
761.406285,0.235174209
790.87776,0.227660396
820.455773,0.220624161
879.919202,0.207811815
939.774132,0.196441123
1000.0,0.18628
1089.4474,0.177852128
1181.20486,0.170247183
1275.20275,0.163346059
1371.37402,0.157052142
1469.66992,0.151285259
1570.02335,0.145980162
1672.38332,0.14108153
1776.70039,0.136542767
1882.99044,0.132321885
1991.15181,0.12838758
2101.1451,0.124710554
2212.93192,0.121265476
2326.48155,0.118030138
2441.75545,0.114985381
2677.3506,0.109401682
2919.98869,0.104390992
3168.97094,0.0998752602
3424.10397,0.0957820595
3685.20156,0.0920527806
3952.12889,0.0886388904
4224.69967,0.0855009748
4502.77272,0.0826056712
4786.21118,0.079924924
5076.49288,0.0774216722
5371.95293,0.0750905322
5672.48092,0.0729136937
5977.96933,0.0708757868
6288.33233,0.0689633574
6603.46201,0.0671648181
7247.67079,0.0638696063
7910.09549,0.0609210199
8589.97934,0.0582658874
9286.78621,0.0558609608
10000.0,0.0536713
10804.3176,0.0519244671
11632.1612,0.050310451
12483.1351,0.0488138537
13356.8435,0.0474216624
14253.0165,0.0461226197
15171.2251,0.0449073034
16111.1539,0.0437674322
17072.4877,0.0426958268
19059.292,0.0407320644
21128.4842,0.0389754601
23278.1579,0.0373932243
25506.4084,0.0359593932
27816.5179,0.0346503343
30202.2737,0.0334520128
32662.2633,0.0323502116
35195.0755,0.0313331417
37799.7891,0.0303907627
40474.8652,0.0295148226
43219.2041,0.0286981576
46031.707,0.0279346389
48929.5017,0.0272146507
51894.3114,0.0265384227
58021.354,0.0253014028
64406.2375,0.0241964693
71042.3712,0.0232025571
77926.097,0.0223026515
85050.1144,0.0214835864
92409.6665,0.020734372
100000.0,0.020046
109387.074,0.0190905027
119025.641,0.0182328402
128907.691,0.017458208
139025.531,0.0167547164
149373.634,0.0161125846
159944.325,0.01552392
170731.822,0.0149820767
181730.531,0.0144814941
192942.417,0.0140171878
204355.863,0.0135854727
215966.446,0.0131829099
227769.863,0.0128065406
239762.69,0.0124537818
251940.616,0.0121224146
276837.789,0.0115162542
302492.615,0.0109738826
328826.5,0.0104864199
355818.06,0.0100456458
383446.742,0.00964494212
411697.728,0.00927885315
440550.51,0.00894296683
469989.6,0.00863356199
500000.0,0.00834752
525135.401,0.00790253637
550177.359,0.00750188598
575130.735,0.00713929055
600000.0,0.0068096
800000.0,0.00686263
894830.323,0.00717020348
1000000.0,0.00748892
1061529.12,0.00710827918
1123360.36,0.00676526083
1185479.98,0.00645451321
1247875.2,0.00617165806
1310535.56,0.00591307251
1373449.46,0.00567574475
1436607.29,0.00545713921
1500000.0,0.00525511
2000000.0,0.00536509
2238171.95,0.00553262039
2500000.0,0.00570245
2624759.99,0.00544240644
2749684.58,0.00520519514
2874766.77,0.00498792936
3000000.0,0.00478819
3038580.21,0.00460128772
3076481.48,0.00442694563
3150370.49,0.00411137179
3221891.11,0.00383361358
3291239.29,0.00358748309
3358578.72,0.00336807271
3424065.36,0.00317138695
3487830.64,0.0029941931
3549992.35,0.00283383072
3610627.65,0.00268815908
3669859.43,0.00255526046
3727772.1,0.0024335862
3784442.59,0.0023218227
3839938.65,0.00221885377
3894325.72,0.00212371535
3947661.69,0.00203557994
4000000.0,0.00195373
4043277.08,0.00184742459
4085294.93,0.00175074724
4126136.43,0.00166250391
4165876.58,0.00158168497
4204581.46,0.00150743526
4242313.86,0.001439018
4279129.35,0.00137580275
4315078.91,0.00131724429
4350201.63,0.00126288067
4384547.98,0.00121228651
4451065.48,0.00112100583
4514910.0,0.00104100102
4576322.63,0.00097038827
4635457.81,0.000907727818
4692553.41,0.000851754462
4747767.4,0.000801497462
4801240.17,0.000756160507
4853092.72,0.000715088182
4903439.13,0.00067772955
4952378.36,0.000643624797
5000000.0,0.000612385
5045026.77,0.000576312621
5088558.22,0.000543738543
5130701.8,0.000514200856
5171553.92,0.000487313296
5211198.88,0.00046275216
5249716.11,0.000440241101
5287175.45,0.000419545859
5323640.51,0.000400465544
5359160.12,0.000382831501
5393796.28,0.000366489088
5460606.68,0.000337175302
5524410.75,0.000311666979
5585498.96,0.000289299605
5644058.5,0.00026957155
5700369.2,0.000252044318
5754616.76,0.000236385595
5806964.97,0.000222324979
5857554.36,0.000209641606
5906516.25,0.000198151036
5953964.09,0.000187700358
6062554.72,0.000164881238
6122443.73,0.000153210001
6179907.25,0.000142884834
6235154.84,0.000133695915
6288364.06,0.000125474659
6339699.65,0.000118082245
6389302.42,0.000111405187
6437298.05,0.000105349239
6483778.37,9.98379502e-05
6528864.66,9.48023454e-05
6572646.72,9.01863375e-05
6615206.07,8.59420701e-05
6656615.01,8.20286624e-05
6696942.0,7.84106306e-05
6736248.06,7.50573843e-05
6774589.26,7.19422919e-05
6848459.49,6.63449821e-05
6919045.21,6.14537866e-05
6986654.59,5.71489516e-05
7051554.85,5.33356422e-05
7113970.97,4.99383249e-05
7174111.1,4.68952613e-05
7232152.08,4.41563534e-05
7288251.16,4.16802638e-05
7342307.13,3.94423088e-05
7394699.43,3.74024173e-05
7445537.92,3.55366644e-05
7494922.08,3.38247191e-05
7542939.9,3.22492814e-05
7589674.59,3.0795386e-05
7635200.09,2.94501754e-05
7679584.23,2.82024911e-05
7765154.3,2.59624728e-05
7846841.03,2.40106187e-05
7925015.87,2.22971419e-05
8000000.0,2.07828e-05
8062817.59,1.93014365e-05
8122992.06,1.7991204e-05
8180753.59,1.6825463e-05
8236303.96,1.57826765e-05
