energy [eV],cross section [b]
1e-05,143.890635
1.08833751e-05,137.927475
1.17667502e-05,132.649119
1.27194899e-05,127.58448
1.34471358e-05,124.084589
1.41747818e-05,120.857775
1.52662506e-05,116.457285
1.61653057e-05,113.17251
1.70643607e-05,110.150875
1.88624709e-05,104.769238
1.99733133e-05,101.814137
2.10841558e-05,99.0957666
2.33058408e-05,94.2542537
2.53646208e-05,90.3481546
2.74234008e-05,86.8906296
2.96438407e-05,83.5730977
3.21876007e-05,80.2028109
3.47313607e-05,77.2099282
3.76746041e-05,74.1327106
3.97699275e-05,72.1534261
4.29129126e-05,69.4609236
4.52550302e-05,67.6396364
4.7843942e-05,65.7841662
5.17273098e-05,63.2666945
5.43162216e-05,61.7405472
5.75149948e-05,59.9991231
6.0713768e-05,58.3972033
6.39125413e-05,56.9171041
6.90874633e-05,54.7440007
7.50159098e-05,52.5363419
8.09443563e-05,50.5758973
8.78038325e-05,48.5602113
9.51288236e-05,46.6532272
0.000102453815,44.9545999
0.000108487491,43.6866497
0.000114521168,42.5202745
0.000123571683,40.9336073
0.000134043531,39.3022317
0.000141498541,38.2529223
0.000156408561,36.3840679
0.000170225304,34.8762918
0.000188647628,33.129724
0.000198943712,32.2610885
0.000210324717,31.376151
0.000227396224,30.1754841
0.000245808225,29.0234339
0.000266901211,27.8530669
0.000287994197,26.8137601
0.00031239972,25.7451703
0.000329774248,25.0578487
0.000355836039,24.1228594
0.000375256997,23.4904072
0.000396724384,22.8460863
0.000439659159,21.7020537
0.000463655048,21.1330837
0.000490179437,20.5534368
0.000543228215,19.524238
0.000589263062,18.7462096
0.000622035714,18.2457798
0.000654808366,17.7834079
0.000707827416,17.1045504
0.000768566612,16.4149031
0.000829305808,15.8024875
0.000899583759,15.1728205
0.00094961531,14.7678183
0.00102466264,14.2168817
0.00108058707,13.8442154
0.00114240439,13.4645578
0.00123513037,12.9494498
0.00129694769,12.6371832
0.00137332711,12.2808719
0.00144970653,11.9531079
0.00152608595,11.6502724
0.00164965131,11.2056508
0.00179120911,10.7539672
0.00197995285,10.2288313
0.00215485696,9.80516606
0.00232976106,9.43016351
0.00251839903,9.07035374
0.00266246949,8.82171499
0.00280653995,8.59248088
0.00302264564,8.27987615
0.0032006543,8.04653686
0.0034676673,7.73082916
0.00384465108,7.34242425
0.00406459265,7.1412286
0.00428453423,6.95573697
0.00475032283,6.60635656
0.00515795156,6.3403026
0.00570145653,6.03099685
0.00620510901,5.78146968
0.00670876149,5.56061385
0.00725196189,5.34871608
0.00766682605,5.2022953
0.0080816902,5.06730694
0.00870398643,4.88323328
0.00921657877,4.74584147
0.00998546727,4.55996166
0.0110710268,4.33129954
0.0117043688,4.21286112
0.0123377108,4.10367374
0.013678992,3.89803411
0.0148527964,3.74145776
0.016417869,3.55945059
0.0178681827,3.41264047
0.0193184964,3.28271716
0.020882692,3.15808153
0.0226746513,3.03149471
0.0238692908,2.95516059
0.0260085197,2.83188162
0.0274255591,2.75830754
0.0295511182,2.65806018
0.0327919243,2.52446117
0.0346156909,2.45769778
0.0364394576,2.39602812
0.0382632242,2.33883731
0.0405166096,2.27359891
0.0427699949,2.21360682
0.0450233803,2.15819556
0.0486688695,2.07687557
0.0528451813,1.99431092
0.0570214932,1.92103817
0.0618536716,1.84575216
0.0670137834,1.77458052
0.0721738952,1.71123543
0.0764243367,1.66398567
0.0806747783,1.62054985
0.0870504405,1.56151124
0.0918015133,1.52161104
0.0970532173,1.48099426
0.107556625,1.40896623
0.113426893,1.37319186
0.119915723,1.33678283
0.132893384,1.27223863
0.144155182,1.22354514
0.152172565,1.19227675
0.160189948,1.163426
0.173160337,1.12114359
0.188019354,1.07829406
0.202878371,1.04034448
0.220070914,1.00143988
0.232310452,0.976485431
0.24454999,0.953482377
0.264169296,0.920103951
0.278928832,0.897427991
0.294051597,0.876052879
0.326623181,0.835364684
0.345308366,0.814782534
0.363993551,0.795884248
0.403564725,0.760518899
0.438194913,0.733823072
0.484368498,0.703094861
0.527156406,0.67859309
0.569944313,0.657162701
0.618929689,0.63570418
0.68031,0.612566975
0.724664316,0.597977315
0.782996483,0.581031561
0.826543878,0.569796535
0.870091273,0.559604375
0.932875,0.54650284
0.9884393,0.536266821
1.0440036,0.527134838
1.12886151,0.515022587
1.19534205,0.506870681
1.32830314,0.493506131
1.438005,0.484954186
1.57817857,0.476716948
1.71835215,0.471043456
1.83324164,0.468058618
1.98967918,0.46614836
2.12931173,0.466370852
2.25757842,0.468083151
2.3973193,0.471539268
2.55304421,0.477326522
2.70083,0.484732469
2.85489465,0.494513685
3.03042732,0.508387177
3.20596,0.52543741
3.3322425,0.539878787
3.49135845,0.560979728
3.6504744,0.585747334
3.7565517,0.604574929
3.91187918,0.635982057
4.01640805,0.660037106
4.1353992,0.690709048
4.266733,0.729237178
4.367759,0.762731215
4.42079765,0.781831909
4.52182365,0.821451669
4.620324,0.864680384
4.670837,0.888833347
4.771863,0.941710093
4.822376,0.970683785
4.91771452,1.03061878
4.973915,1.06954222
5.0496845,1.12681508
5.1001975,1.16840104
5.175967,1.23654793
5.2517365,1.31255043
5.327506,1.39765181
5.4032755,1.49335428
5.479045,1.60148665
5.5043015,1.64066686
5.5548145,1.72429349
5.580071,1.76895226
5.630584,1.86455416
5.681097,1.96943912
5.71898175,2.05493568
5.7568665,2.14695256
5.79475125,2.24617204
5.832636,2.35336847
5.88946312,2.53108274
5.92734787,2.66236082
5.94629025,2.7322893
5.984175,2.88158636
6.0094315,2.98873076
6.034688,3.10255956
6.0599445,3.22364322
6.085201,3.35261457
6.1083751,3.4784918
6.135714,3.63711531
6.1609705,3.79430477
6.186227,3.96272661
6.2114835,4.14348241
6.23674,4.33781258
6.2619965,4.54711791
6.287253,4.77298518
6.3125095,5.01721761
6.337766,5.28187131
6.3630225,5.56929914
6.37565075,5.72238259
6.40090725,6.0491655
6.4135355,6.22370166
6.438792,6.59740239
6.45142025,6.79761477
6.47667675,7.22770824
6.489305,7.45891561
6.5145615,7.95740052
6.539818,8.50976818
6.5650745,9.12410708
6.58401687,9.63127615
6.59664513,9.99408692
6.60927337,10.378493
6.62821575,10.9994809
6.640844,11.4459568
6.65347225,11.921018
6.67241463,12.6927553
6.68504287,13.2508477
6.69767113,13.8475928
6.71029937,14.4866553
6.72292763,15.1721456
6.73555587,15.9086859
6.74818412,16.7014892
6.7671265,18.0092989
6.77975475,18.9703283
6.792383,20.0120271
6.79869713,20.5659861
6.81132538,21.7465716
6.82395362,23.0337791
6.83658188,24.4408761
6.84605306,25.5840484
6.85552425,26.8106854
6.8681525,28.5906092
6.88078075,30.5566888
6.893409,32.7358703
6.90603725,35.1601604
6.91235138,36.4758921
6.9186655,37.8678113
6.92497962,39.3419246
6.93445081,41.7218524
6.94076494,43.4318794
6.94707906,45.2503956
6.95339319,47.1867876
6.95970731,49.2514797
6.96602144,51.4560744
6.97233556,53.8135162
6.97864969,56.3382821
6.98654234,59.7544555
6.99285647,62.7181507
7.00074913,66.7460384
7.00785252,70.7150539
7.01574517,75.5581309
7.0232432,80.6384519
7.03113585,86.5641413
7.03508218,89.7765068
7.03902851,93.1721144
7.04297484,96.7651701
7.0473158,100.964259
7.05126213,105.024645
7.05520845,109.336216
7.05915478,113.920118
7.06310111,118.799768
7.06704744,124.001154
7.07146733,130.244471
7.0752558,135.980423
7.07999139,143.701235
7.08409557,150.938991
7.08851546,159.364335
7.09293535,168.517318
7.09798665,179.979939
7.10240654,190.999131
7.10745784,204.880595
7.11187772,218.308739
7.11440338,226.583773
7.11692902,235.338746
7.11945468,244.611409
7.12198032,254.443283
7.12450597,264.880123
7.12703162,275.972446
7.12955727,287.776131
7.13208293,300.353121
7.13460857,313.772221
7.13776564,331.847829
7.14029129,347.455362
7.14344835,368.560034
7.145974,386.856488
7.14913106,411.702919
7.15165671,433.339508
7.15481377,462.861495
7.15797084,495.493271
7.1611279,531.684291
7.16428496,571.967557
7.16554779,589.365122
7.16744202,616.978791
7.16870485,636.473062
7.17059909,667.480885
7.17249332,700.793361
7.17438756,736.642303
7.1762818,775.289077
7.17817604,817.029188
7.18007028,862.197689
7.18196451,911.17562
7.18385875,964.397667
7.18575299,1022.36134
7.18764723,1085.63797
7.18954146,1154.88603
7.1914357,1230.86717
7.19269852,1285.69291
7.19396135,1344.19838
7.19585559,1439.58739
7.19711841,1508.81688
7.19838124,1583.05255
7.19964406,1662.7764
7.20090689,1748.52814
7.20216971,1840.91329
7.20343254,1940.61274
7.20469536,2048.39377
7.20595819,2165.12295
7.20722101,2291.78115
7.20848384,2429.48114
7.20974666,2579.48814
7.21100949,2743.24388
7.21227231,2922.3948
7.21321943,3067.98446
7.21416655,3224.18281
7.21479796,3334.69448
7.21574508,3510.83274
7.21637649,3635.68238
7.21732361,3835.04847
7.21795503,3976.62895
7.21890214,4203.14453
7.21953356,4364.31144
7.22048068,4622.65755
7.22111209,4806.81893
7.22205921,5102.5787
7.22300633,5423.89942
7.22395344,5773.42305
7.22490056,6154.06427
7.22584768,6569.02451
7.2267948,7021.79867
7.22742621,7346.51293
7.22805762,7690.89773
7.22900474,8247.07087
7.22963616,8646.11871
7.23026757,9069.30166
7.23121469,9752.17743
7.2318461,10241.3362
7.23247751,10758.9945
7.23310892,11306.1844
7.23405604,12184.0987
7.23487688,13001.4478
7.23588714,14079.0162
7.2368974,15231.7185
7.23790766,16450.3519
7.24144357,20921.3546
7.24220127,21819.5535
7.24295896,22649.5369
7.24346409,23152.7041
7.24396922,23607.126
7.24447435,24005.6838
7.24497948,24341.7716
7.24548461,24609.5492
7.24598974,24804.1826
7.24649487,24922.0549
7.247,24960.9303
7.24750513,24920.0588
7.24801026,24800.2119
7.24851539,24603.6461
7.24902052,24333.9977
7.24952565,23996.1179
7.25003078,23595.8615
7.25053591,23139.8464
7.25104104,22635.2004
7.25179873,21803.2255
7.25280899,20592.3801
7.25558721,17057.3764
7.25659747,15810.6819
7.25760773,14623.1108
7.25861799,13507.0636
7.25937569,12720.9501
7.26025966,11860.477
7.26120678,11005.8185
7.26183819,10473.7195
7.26246961,9970.68435
7.26310102,9495.60174
7.26373243,9047.2537
7.26436384,8624.35968
7.26499526,8225.61114
7.26562667,7849.69807
7.26657379,7325.82867
7.2672052,7001.42976
7.26783661,6695.51348
7.26878373,6268.82293
7.26941514,6004.2645
7.27004656,5754.46091
7.27099367,5405.39186
7.27194079,5084.51514
7.27288791,4789.18766
7.27383503,4517.02151
7.27478215,4265.86402
7.27604497,3960.34652
7.27667639,3819.01835
7.27793921,3556.94163
7.27857062,3435.37279
7.27983345,3209.32886
7.28046486,3104.18975
7.28172769,2908.18153
7.28299051,2729.43255
7.28362193,2645.93211
7.28488475,2489.61681
7.28614758,2346.28814
7.28677899,2279.06546
7.28804181,2152.739
7.28930464,2036.32637
7.28993605,1981.52684
7.29119888,1878.18376
7.2924617,1782.51396
7.29372453,1693.7956
7.29498735,1611.38745
7.29625017,1534.71866
7.297513,1463.27996
7.29877582,1396.61604
7.30003865,1334.31902
7.30130147,1276.02278
7.3025643,1221.39805
7.30382712,1170.14809
7.30508995,1122.00508
7.30635277,1076.72675
7.30824701,1013.70611
7.30950984,974.673198
7.31077266,937.821003
7.3126669,886.29113
7.31519255,823.859951
7.31645538,795.06006
7.31898102,741.763423
7.32024385,717.08073
7.3227695,671.23579
7.32403232,649.928096
7.32655798,610.219171
7.3278208,591.702939
7.33034645,557.090189
7.33160927,540.901833
7.33413492,510.555169
7.33539775,496.322842
7.3379234,469.573467
7.34044905,444.913811
7.34171187,433.300694
7.34423753,411.388543
7.348026,381.490218
7.35055165,363.321301
7.35434013,338.393733
7.35686577,323.165385
7.35939143,308.936271
7.36191707,295.621235
7.36444272,283.143967
7.36696837,271.435925
7.36949402,260.43541
7.37201968,250.086766
7.37454532,240.339684
7.37707098,231.1486
7.37959662,222.472169
7.38212228,214.272809
7.38591075,202.79424
7.39096205,188.864148
7.39601335,176.315252
7.40106465,164.971328
7.40611595,154.68332
7.40990443,147.583287
7.41495573,138.849346
7.4187442,132.795696
7.42253267,127.127819
7.42695256,120.960344
7.43326669,112.89646
7.43958081,105.609738
7.44273787,102.227047
7.449052,95.9297123
7.45536612,90.1946075
7.45852319,87.5172529
7.46483731,82.5067991
7.47115144,77.912993
7.47746556,73.6909829
7.48377969,69.8017858
7.49009381,66.2113904
7.49640794,62.8900159
7.50272206,59.8114969
7.50903619,56.9527693
7.51535031,54.2934402
7.52166444,51.8154253
7.52797856,49.5026424
7.53429269,47.3407516
7.54060681,45.3169336
7.550078,42.5152874
7.55639213,40.7889111
7.56270625,39.1652143
7.57217744,36.9049751
7.58195037,34.7711395
7.59427688,32.3328778
7.60690512,30.09073
7.61321925,29.0558343
7.6258475,27.1395148
7.63216163,26.2514545
7.64478987,24.6008892
7.651104,23.833205
7.66373225,22.4015384
7.67004638,21.7334668
7.68267462,20.4837218
7.68898875,19.8987854
7.701617,18.8014674
7.71424525,17.7922717
7.72055937,17.3178081
7.73318763,16.4239807
7.75213,15.2073946
7.76475825,14.4698061
7.78370062,13.4599917
7.79632887,12.8443344
7.80895713,12.2699399
7.82158537,11.7332129
7.84052775,10.9918137
7.853156,10.5359208
7.86578425,10.107828
7.8784125,9.70532768
7.89104075,9.32642669
7.903669,8.96932204
7.91629725,8.6323794
7.9289255,8.31411459
7.94155375,8.0131773
7.954182,7.72833692
7.9794385,7.20254924
8.004695,6.72886094
8.01732325,6.50943784
8.04257975,6.10178218
8.06783625,5.73149275
8.09309275,5.39415752
8.105721,5.23664466
8.1309775,4.94182007
8.156234,4.67145725
8.1814905,4.42293579
8.19411875,4.30614143
8.21937525,4.08620037
8.2320035,3.98258874
8.26988825,3.69469841
8.307773,3.43744229
8.34565775,3.20664647
8.3835425,2.99882305
8.408799,2.87156866
8.44668375,2.6957423
8.4845685,2.5360324
8.509825,2.43756369
8.54770975,2.30063213
8.5855945,2.17533449
8.62347925,2.06039896
8.661364,1.9547225
8.68030637,1.90505131
8.7371335,1.76742596
8.79396063,1.64494809
8.8381595,1.55878625
8.863416,1.51275435
8.913929,1.42701192
8.964442,1.34887594
9.014955,1.27748219
9.065468,1.21208547
9.115981,1.15204044
9.166494,1.09678608
9.217007,1.04583277
9.26752,0.998751698
9.318033,0.955166045
9.36057667,0.92092321
9.419059,0.877190611
9.469572,0.842246526
9.520085,0.809679647
9.5958545,0.764840699
9.6463675,0.737360093
9.6968805,0.711623569
9.7473935,0.68749012
9.7979065,0.664832673
9.873676,0.633366014
9.97217635,0.596484717
10.0732023,0.562775038
10.126241,0.546551964
10.227267,0.518140378
10.2929339,0.501255744
10.3939599,0.477439811
10.479832,0.459041834
10.5821208,0.439085691
10.6338967,0.429719984
10.7374483,0.412326675
10.790487,0.404054924
10.9496029,0.381537909
11.1087189,0.362033644
11.1933281,0.352724949
11.28804,0.343083778
11.4268284,0.330294516
11.6023611,0.316120838
11.79317,0.302886976
11.9838566,0.291583983
12.1745431,0.281920793
12.2983,0.276416865
12.4245825,0.271357715
12.6632564,0.263164159
12.9158214,0.256190358
13.055995,0.252977789
13.2529957,0.249169208
13.4499964,0.246109426
13.6874075,0.243316571
13.9121904,0.241487225
14.2900909,0.24001018
14.4816457,0.239961228
14.8647551,0.24115957
15.1926949,0.243480329
15.49893,0.246681338
15.8386299,0.251381966
16.0911949,0.255664599
16.33934,0.260540199
16.70642,0.269012796
16.88996,0.273839555
17.2192151,0.283549424
17.5106454,0.293350533
17.897189,0.308281208
18.153789,0.319540896
18.510463,0.337210759
18.75295,0.35072549
19.053172,0.369370301
19.376488,0.392146806
19.699804,0.418178526
19.860179,0.432473311
20.017988,0.447540015
20.27972,0.474962916
20.43368,0.492675042
20.577376,0.510383947
20.710808,0.527938002
20.84424,0.546655322
21.04952,0.57796259
21.157292,0.595741606
21.265064,0.614535613
21.46008,0.651380367
21.66536,0.694619084
21.815611,0.729578717
21.97328,0.769690613
22.12724,0.81268055
22.2812,0.859953654
22.43516,0.912101111
22.58912,0.969820919
22.69176,1.0117996
22.7944,1.05690395
22.94836,1.13113396
23.051,1.18555022
23.15364,1.24441607
23.25628,1.30823457
23.35892,1.37758235
23.46156,1.45312301
23.5642,1.53562334
23.61552,1.57975603
23.71816,1.67440944
23.79514,1.75154611
23.91061,1.87844128
23.98759,1.97142556
24.02608,2.02070464
24.10306,2.12535039
24.18004,2.23888357
24.21853,2.29930325
24.29551,2.42817304
24.38532,2.59354045
24.43664,2.69616238
24.48796,2.80532705
24.53928,2.92160652
24.5906,3.04563696
24.64192,3.17812743
24.69324,3.31987016
24.74456,3.47175255
24.79588,3.63477127
24.8472,3.81004874
24.92418,4.09876884
24.9755,4.31061603
25.02682,4.53995874
25.07814,4.78878795
25.1038,4.92121066
25.15512,5.20365568
25.18078,5.35438285
25.2321,5.67681395
25.25776,5.84939787
25.30908,6.21977138
25.3604,6.62753047
25.39889,6.9609947
25.43738,7.320955
25.482285,7.77827919
25.52719,8.28092689
25.572095,8.83511219
25.6202075,9.49441327
25.6667163,10.2060494
25.6907725,10.6065961
25.7148287,11.0316504
25.7396869,11.4987949
25.764545,11.9967972
25.790205,12.5461867
25.815865,13.1348512
25.841525,13.7666342
25.867185,14.4458612
25.88643,14.9893304
25.9088825,15.6636338
25.931335,16.3851499
25.9537875,17.1583999
25.97624,17.9884597
25.9986925,18.8810434
26.021145,19.8426025
26.046805,21.0354032
26.0692575,22.1706504
26.0949175,23.5856375
26.1205775,25.1420514
26.1462375,26.8594122
26.162275,28.0245494
26.175105,29.0126323
26.200765,31.1537446
26.213595,32.3150684
26.226425,33.5430969
26.239255,34.8430425
26.252085,36.2206365
26.264915,37.682193
26.277745,39.234681
26.290575,40.8858076
26.303405,42.6441142
26.316235,44.5190866
26.329065,46.5212835
26.341895,48.6624856
26.36114,52.1641763
26.37397,54.7140956
26.3900075,58.1746806
26.4028375,61.1863476
26.418875,65.2931361
26.4349125,69.8296253
26.45095,74.8579085
26.4669875,80.4517036
26.4734025,82.8667332
26.483025,86.699063
26.48944,89.404024
26.4990625,93.7058484
26.5054775,96.7490381
26.5151,101.600229
26.5247225,106.826559
26.534345,112.467687
26.543326,118.146619
26.551024,123.364373
26.558722,128.936124
26.568986,136.972875
26.576684,143.504594
26.586948,152.966846
26.597212,163.397421
26.607476,174.932811
26.61774,187.734361
26.622872,194.668519
26.628004,201.993899
26.633136,209.740414
26.638268,217.940881
26.6434,226.631369
26.648532,235.851586
26.653664,245.645332
26.658796,256.061012
26.663928,267.152226
26.671626,285.187579
26.676758,298.242666
26.68189,312.212646
26.687022,327.184644
26.69472,351.738388
26.699852,369.669863
26.70755,399.240023
26.712682,420.959877
26.715248,432.487259
26.72038,457.001328
26.726795,490.67134
26.73321,528.178561
26.735776,544.386655
26.740908,579.106408
26.743474,597.715473
26.748606,637.705156
26.752455,670.366708
26.756304,705.578442
26.760153,743.60977
26.764002,784.76617
26.767851,829.39505
26.7717,877.892742
26.775549,930.712861
26.778115,968.581759
26.780681,1008.77504
26.78453,1073.84609
26.787096,1120.72915
26.789662,1170.69604
26.793511,1252.02934
26.796077,1310.9574
26.798643,1374.05645
26.801209,1441.7199
26.803775,1514.3873
26.806341,1592.55083
26.808907,1676.76271
26.811473,1767.64391
26.814039,1865.89417
26.816605,1972.30382
26.819171,2087.76743
26.821737,2213.29992
26.824303,2350.05523
26.826869,2499.34834
26.828152,2579.15778
26.830718,2750.13973
26.833284,2937.83096
26.834567,3038.59055
26.837133,3255.40094
26.838416,3372.10166
26.840982,3623.90086
26.8429065,3830.44428
26.844831,4053.84476
26.8467555,4295.80876
26.84868,4558.23236
26.8506045,4843.21986
26.852529,5153.10208
26.8544535,5490.45359
26.856378,5858.10693
26.8583025,6259.16138
26.8595855,6546.7386
26.8608685,6851.71198
26.862793,7344.22166
26.864076,7697.611
26.865359,8072.42086
26.8672835,8677.40925
26.8685665,9110.9604
26.8698495,9569.99275
26.8711325,10055.5157
26.873057,10835.2967
26.8748532,11620.2986
26.8763928,12337.3869
26.8784456,13355.3083
26.8804984,14438.2847
26.8825512,15574.9557
26.8881964,18796.38
26.8902492,19899.0107
26.8917888,20656.2321
26.8928152,21115.3035
26.8938416,21529.9167
26.894868,21893.5783
26.8958944,22200.2632
26.8969208,22444.6446
26.8979472,22622.3138
26.8989736,22729.9722
26.9,22765.5811
26.9015396,22682.7865
26.902566,22538.3095
26.9035924,22325.3714
26.9046188,22047.8647
26.9056452,21710.6977
26.9066716,21319.5865
26.907698,20880.8279
26.9092376,20147.9321
26.9112904,19066.555
26.9184752,14985.507
26.920528,13873.8011
26.9215544,13339.9224
26.9236072,12322.1828
26.9251468,11605.3007
26.9263015,11094.4504
26.9275845,10553.8024
26.9288675,10041.1727
26.930792,9323.27193
26.932075,8877.38234
26.933358,8456.4335
26.9352825,7869.26178
26.937207,7331.62646
26.9391315,6839.51532
26.941056,6389.03357
26.942339,6110.00464
26.9442635,5720.80956
26.9455465,5479.49495
26.947471,5142.48336
26.948754,4933.22542
26.9506785,4640.52535
26.9519615,4458.47552
26.9532445,4286.12066
26.9546424,4108.64992
26.956452,3893.73153
26.957735,3750.75124
26.960301,3486.0872
26.962867,3246.99434
