energy [eV],cross section [b]
1e-05,10.0592613
1.09112002e-05,9.63007838
1.18224004e-05,9.2515233
1.28074038e-05,8.8886442
1.3562477e-05,8.6376691
1.43175502e-05,8.40681924
1.545016e-05,8.09281421
1.63887059e-05,7.8576689
1.73272518e-05,7.64189748
1.92043437e-05,7.25882466
2.03709439e-05,7.04791177
2.1537544e-05,6.85437625
2.38707443e-05,6.51078024
2.6045847e-05,6.23299477
2.82209497e-05,5.9879778
3.05722262e-05,5.75310698
3.327585e-05,5.51443966
3.59794738e-05,5.30320664
3.91210608e-05,5.08581579
4.13614398e-05,4.94615932
4.47220083e-05,4.75669449
4.72345785e-05,4.62845316
5.00193398e-05,4.49776647
5.41964819e-05,4.32096064
5.69812432e-05,4.21405193
6.04426647e-05,4.09160805
6.39040861e-05,3.97925246
6.73655075e-05,3.87567183
7.29781793e-05,3.72365339
7.94319306e-05,3.56917767
8.58856819e-05,3.43245861
9.33848837e-05,3.29175393
0.000101406811,3.15887215
0.000109428738,3.04088415
0.000116076171,2.95252783
0.000122723603,2.87145128
0.000132694752,2.76145884
0.000140149804,2.68700926
0.000148412474,2.61114004
0.000156675145,2.54135462
0.000164937815,2.47688111
0.000174204346,2.41010376
0.000184474735,2.34205306
0.00019988032,2.24998737
0.00021015071,2.19431824
0.000222916668,2.13055969
0.000242065605,2.04455282
0.000261214542,1.96818584
0.000285016417,1.88421178
0.000308818292,1.81014357
0.000334548013,1.7391425
0.000354271622,1.6900366
0.000383857037,1.62360128
0.000403580646,1.58343
0.000428096831,1.53742133
0.000452613016,1.49520334
0.000477129201,1.45628258
0.000501645385,1.42025103
0.000532118677,1.37898364
0.00056259197,1.3411163
0.000593065262,1.30620639
0.000642477503,1.25497139
0.000699294349,1.20290819
0.000756111196,1.15682952
0.000822131869,1.10940753
0.000892754454,1.06462208
0.00096337704,1.02485628
0.001021899,0.995077307
0.00108042096,0.967751836
0.00116820389,0.930680728
0.00123383588,0.905588722
0.0013065779,0.880018232
0.00137931991,0.856498173
0.00145206193,0.834768389
0.00153364162,0.812262112
0.00162405898,0.789326654
0.00175968502,0.758297267
0.00185010238,0.739534785
0.00196248996,0.718045854
0.00213107133,0.689058395
0.0022996527,0.663319883
0.0025091971,0.63501745
0.00264889337,0.618044977
0.00285843777,0.594958748
0.00303207838,0.577670391
0.00329253929,0.554349267
0.0035530002,0.533641979
0.00376883317,0.518135106
0.00398466614,0.503905826
0.00420049911,0.490787818
0.00441633208,0.478643578
0.0046846096,0.464734587
0.00508702587,0.445972033
0.00535530339,0.434656479
0.00565617484,0.422936547
0.00615637293,0.405388625
0.00665657101,0.389857706
0.00723779676,0.37387393
0.00765228982,0.363605554
0.0082740294,0.349674884
0.00899648529,0.335337994
0.00951169465,0.326127605
0.0102845087,0.313632243
0.0108623126,0.305174552
0.011502711,0.296555525
0.0121431094,0.28862758
0.0127835078,0.281303037
0.0135017103,0.273716703
0.0146957204,0.262357826
0.0162877338,0.2492016
0.0177718725,0.238565051
0.0192560111,0.229183057
0.0208603584,0.220189405
0.0220902015,0.213969093
0.0239349662,0.205553489
0.0260474405,0.197036967
0.0275423214,0.191611764
0.0290372024,0.186611007
0.0312795238,0.179793041
0.0331796511,0.174564981
0.0350797783,0.169767557
0.0388800328,0.161250097
0.0412418658,0.156560364
0.0436036987,0.152256902
0.0483273647,0.144616371
0.0527309552,0.138438928
0.0571345457,0.132989909
0.0618948075,0.127766248
0.067368412,0.122457826
0.0728420166,0.117759289
0.0792022966,0.112923439
0.0837380418,0.109816584
0.0905416596,0.105601387
0.0956284677,0.102748082
0.101266339,0.0998401837
0.10690421,0.0971652841
0.112542081,0.0946938256
0.118864916,0.092133872
0.129376614,0.0883005631
0.143392212,0.0838601273
0.156458113,0.080269609
0.169524015,0.0771021478
0.183648196,0.0740653614
0.199888938,0.070978933
0.21612968,0.0682467568
0.235001279,0.0654343496
0.248459296,0.0636272523
0.268646323,0.0611751712
0.283739401,0.0595151061
0.300467538,0.0578230695
0.317195676,0.0562664077
0.333923813,0.0548279524
0.352684308,0.0533377866
0.383873587,0.0511059661
0.425459293,0.0485199463
0.464227153,0.0464282555
0.502995013,0.044582474
0.544902898,0.0428122984
0.593090833,0.0410125729
0.641278768,0.0394188355
0.697272722,0.0377776572
0.737204032,0.0367227462
0.797100995,0.0352907912
0.841883693,0.0343209761
0.89151778,0.0333321394
0.941151868,0.0324220851
0.990785955,0.0315808315
1.04645025,0.0307090027
1.13899202,0.0294025714
1.20068653,0.028616165
1.26238104,0.027887639
1.37740923,0.0266612532
1.49243742,0.025578173
1.61678238,0.0245385951
1.75976089,0.0234806966
1.9027394,0.0225429726
2.06887917,0.0215763413
2.18735943,0.0209544274
2.36507982,0.0201094242
2.49795464,0.0195365601
2.64522403,0.0189519447
2.79249342,0.0184134135
2.93976281,0.0179151459
3.10492446,0.0173982821
3.3795053,0.0166227627
3.5625592,0.0161553137
3.7456131,0.0157218186
4.08691344,0.0149910291
4.42821379,0.0143444436
4.79715795,0.013722681
5.07997915,0.0132914351
5.50421095,0.0127062696
5.96280365,0.0121432986
6.31434664,0.011752668
6.66588964,0.0113923786
7.19320413,0.0109006905
7.63016741,0.0105311805
8.06713069,0.0101910655
8.50409396,0.00987657336
8.94105724,0.0095845817
9.75576657,0.00909158086
10.5704759,0.00865458581
11.4511731,0.00823366708
12.463846,0.0078037987
13.4765188,0.00742144611
14.6532358,0.00702600862
15.492395,0.00677090426
16.751134,0.00642345882
17.6922456,0.00618739389
18.7353094,0.00594608965
19.7783733,0.00572348738
20.8214372,0.00551729201
21.9912264,0.00530320653
23.9359982,0.00498174072
25.88077,0.0046964139
28.1405776,0.00440214025
30.5579031,0.00412384913
32.9752287,0.00387665721
34.9783643,0.00369163661
36.9815,0.00352204579
38.9846357,0.00336595833
40.9877714,0.00322177138
43.4776425,0.00305712825
45.9675136,0.0029066507
48.4573847,0.00276856374
50.9472557,0.00264138922
52.4946941,0.00256729406
55.5895708,0.00242928131
57.1370091,0.00236491413
60.2318858,0.00224448185
63.3267625,0.00213400711
65.2502078,0.0020698517
69.0970985,0.00195079902
72.9439891,0.00184273706
76.7908798,0.00174428557
81.1051421,0.00164388396
85.8867761,0.00154339774
90.6684101,0.00145278286
93.0592271,0.00141077256
97.8408611,0.00133265702
100.812615,0.00128773355
106.756122,0.00120529959
112.69963,0.00113161937
115.671384,0.00109769582
121.614891,0.0010350613
125.308742,0.000999329584
129.002592,0.000965827024
132.696443,0.000934392021
136.390293,0.00090487911
143.777994,0.000851107563
149.31877,0.000814937509
155.757103,0.000776914104
162.644213,0.00074054836
169.531324,0.000708207765
176.418435,0.000679527988
183.305545,0.000654208463
189.157333,0.000635151353
195.459238,0.000617003099
201.733,0.000601264652
209.239,0.000585362604
212.992,0.000578576335
220.498,0.000567296269
224.251,0.000562798604
229.391354,0.000557881724
233.553417,0.000554967563
238.284709,0.000552840253
243.016,0.000552012467
250.522,0.000553500752
254.275,0.000555610762
261.781,0.000562802219
267.4105,0.000571044098
271.1635,0.00057804339
274.5412,0.00058546766
279.0448,0.0005971808
282.542596,0.000607852588
288.052,0.000627828423
290.303797,0.000637243234
294.0568,0.000654766803
298.042486,0.000676214983
300.872248,0.000693488315
304.204912,0.000716366076
307.897864,0.000745497803
311.230528,0.000775940335
314.405566,0.000809516636
316.5748,0.000835637911
318.076,0.000855544002
319.944994,0.000882814159
321.994132,0.000916543914
323.037466,0.000935574511
324.8314,0.000971890367
326.092408,0.00100070379
327.353416,0.00103287809
328.5844,0.00106826382
329.605216,0.00110127105
330.38584,0.00112922268
331.616824,0.0011791719
332.48752,0.00121985691
333.38824,0.00126783906
334.28896,0.00132332468
335.18968,0.00138838203
335.79016,0.00143844373
336.0904,0.00146587889
336.69088,0.00152639768
337.29136,0.0015958457
337.5916,0.00163455687
338.04196,0.00169850387
338.49232,0.00177069203
338.90515,0.0018454977
339.24292,0.0019139667
339.69328,0.00201739457
340.03105,0.00210578647
340.36882,0.00220528357
340.74412,0.00233138708
341.04436,0.00244635471
341.19448,0.00250929165
341.49472,0.00264774973
341.7199,0.00276418315
341.94508,0.00289319152
342.17026,0.00303671665
342.32038,0.00314159793
342.4705,0.00325476474
342.69568,0.00344209593
342.8458,0.00358029047
343.07098,0.00381077952
343.14604,0.00389455443
343.29616,0.00407384151
343.44628,0.00427048434
343.5964,0.00448683333
343.67146,0.00460324249
343.82158,0.00485448299
343.9717,0.00513331097
344.12182,0.0054439655
344.27194,0.00579153249
344.38453,0.00608008051
344.45959,0.00628738179
344.53465,0.00650781825
344.60971,0.00674253113
344.68477,0.00699278839
344.79736,0.00740045267
344.87242,0.00769611286
344.94748,0.00801302876
345.02254,0.00835329756
345.0976,0.00871928157
345.17266,0.00911364951
345.24772,0.00953942537
345.36031,0.0102446288
345.43537,0.0107650439
345.51043,0.0113312016
345.54796,0.011633132
345.62302,0.0122785468
345.69808,0.012985213
345.77314,0.0137611485
345.81067,0.0141779612
345.88573,0.0150758757
345.96079,0.0160696768
346.03585,0.0171735355
346.11091,0.018404339
346.14844,0.0190735214
346.18597,0.0197823406
346.2235,0.0205339914
346.26103,0.0213319968
346.29856,0.0221802494
346.33609,0.0230830589
346.37362,0.0240452068
346.41115,0.0250720096
346.44868,0.0261693926
346.48621,0.0273439751
346.52374,0.0286031703
346.56127,0.0299553021
346.5988,0.0314097431
346.63633,0.0329770765
346.67386,0.0346692888
346.71139,0.0364999989
346.74892,0.0384847321
346.767685,0.0395403098
346.805215,0.0417901834
346.842745,0.044243564
346.880275,0.0469257287
346.917805,0.0498659988
346.93657,0.0514433856
346.9741,0.0548366544
347.01163,0.0585847628
347.030395,0.0606075232
347.064172,0.0645274462
347.090443,0.0678501632
347.112961,0.0709102985
347.131726,0.0736238911
347.154244,0.0770940406
347.169256,0.0795475147
347.19928,0.0848242348
347.229304,0.0906508627
347.259328,0.0971063331
347.289352,0.104284224
347.31187,0.110208071
347.334388,0.116655681
347.3494,0.121275984
347.364412,0.126178184
347.38693,0.134111715
347.401942,0.139826132
347.416954,0.145915496
347.431966,0.152413196
347.446978,0.159356402
347.46199,0.166786594
347.477002,0.174750166
347.492014,0.183299142
347.507026,0.192492009
347.522038,0.202394701
347.529544,0.207635153
347.544556,0.218745403
347.559568,0.23077104
347.57458,0.24381472
347.593345,0.261731308
347.61211,0.281691157
347.627122,0.299343176
347.634628,0.308795021
347.64964,0.329085181
347.664652,0.351429688
347.672158,0.363459152
347.68717,0.389432474
347.694676,0.403466844
347.705935,0.425971056
347.717194,0.450392118
347.728453,0.476950829
347.739712,0.505900189
347.750971,0.537531097
347.76223,0.572179231
347.773489,0.610233396
347.784748,0.652145697
347.796007,0.698443993
347.807266,0.749747209
347.814772,0.787084622
347.822278,0.827215472
347.833537,0.893266253
347.841043,0.941672084
347.848549,0.994004369
347.856055,1.0506843
347.863561,1.11218865
347.871067,1.17905833
347.878573,1.25190836
347.886079,1.33143961
347.893585,1.41845249
347.901091,1.51386296
347.904844,1.56503969
347.91235,1.6750636
347.919856,1.79641108
347.923609,1.86178798
347.931115,2.00298177
347.938621,2.15965614
347.942374,2.24444931
347.948004,2.38052955
347.951756,2.47764483
347.957386,2.6337851
347.963015,2.8036379
347.968645,2.98862118
347.974274,3.19029245
347.979904,3.41035224
347.985533,3.6506417
347.991163,3.9131316
347.996793,4.1998981
348.002422,4.51307965
348.008051,4.85480722
348.011805,5.09948952
348.015557,5.35830003
348.019311,5.63169899
348.02494,6.06987098
348.027942,6.31749596
348.033947,6.84154024
348.03695,7.11749499
348.042954,7.69494964
348.048959,8.3010953
348.065472,10.0194117
348.071477,10.6077834
348.075981,11.0119543
348.078983,11.257051
348.081986,11.4784728
348.084988,11.6727553
348.08799,11.8366826
348.090993,11.9674108
348.093995,12.0625843
348.096998,12.120439
348.1,12.139882
348.104504,12.096417
348.107506,12.0198249
348.110508,11.9067142
348.113511,11.7591554
348.116513,11.5797614
348.119516,11.3715767
348.122518,11.1379563
348.127022,10.7476054
348.133026,10.1714745
348.154043,7.99618992
348.160048,7.40345323
348.16305,7.11878148
348.169055,6.57607604
348.172058,6.31880178
348.178813,5.77528924
348.182566,5.4944531
348.186319,5.22839332
348.191949,4.85608946
348.195702,4.62498524
348.199455,4.40687737
348.205084,4.10271969
348.210713,3.82425931
348.216343,3.56937281
348.221972,3.33601589
348.225726,3.1914474
348.231355,2.98975205
348.235108,2.86465866
348.240738,2.68990276
348.24449,2.58135594
348.25012,2.42947124
348.253873,2.33496836
348.259503,2.20249923
348.263256,2.11992449
348.268885,2.00395923
348.272638,1.93153436
348.280144,1.79734713
348.28765,1.67597342
348.295156,1.56592439
348.302662,1.46590644
348.310168,1.37479421
348.317674,1.29160706
348.32518,1.21548893
348.332686,1.14569098
348.336439,1.1129537
348.343945,1.05143063
348.351451,0.994732815
348.358957,0.94238343
348.36271,0.917705801
348.373969,0.849093295
348.385228,0.787741736
348.396487,0.73268381
348.407746,0.683104459
348.419005,0.638313694
348.430264,0.597724761
348.441523,0.560836515
348.449029,0.538085462
348.460288,0.506439757
348.467794,0.486851622
348.479053,0.459512409
348.486559,0.442533869
348.497818,0.418762538
348.505324,0.403954793
348.520336,0.376585337
348.535348,0.351888807
348.542854,0.340436467
348.557866,0.319139219
348.572878,0.299771229
348.580384,0.290739287
348.595396,0.273854476
348.610408,0.258395273
348.62542,0.244206647
348.640432,0.231153945
348.655444,0.219119782
348.670456,0.20800147
348.685468,0.197708867
348.70048,0.188162603
348.715492,0.17929257
348.73801,0.167121527
348.753022,0.159685295
348.768034,0.152736342
348.790552,0.14313698
348.805564,0.137233955
348.820576,0.131690694
348.843094,0.123988665
348.858106,0.119225861
348.873118,0.114734317
348.895636,0.108462034
348.92566,0.100875123
348.940672,0.0973795944
348.970696,0.0909177563
348.985708,0.0879280911
349.015732,0.0823798629
349.030744,0.0798031633
349.045756,0.0773471548
349.068274,0.0738733911
349.087039,0.0711569487
349.109557,0.0680935762
349.143334,0.0638624839
349.169605,0.060843187
349.18837,0.0588182445
349.2259,0.0550660792
349.26343,0.0516691308
349.30096,0.0485839977
349.33849,0.0457737027
349.37602,0.0432065857
349.41355,0.0408554134
349.432315,0.0397533259
349.469845,0.037682948
349.507375,0.0357753824
349.56367,0.0331835368
349.619965,0.030873442
349.67626,0.0288057378
349.732555,0.0269477005
349.78885,0.0252719449
349.845145,0.0237554131
349.90144,0.0223785792
349.957735,0.0211248199
350.01403,0.019979912
350.070325,0.0189316285
350.12662,0.0179694113
350.20168,0.0168046877
350.23921,0.0162677429
350.31427,0.0152745926
350.38933,0.0143775326
350.42686,0.0139612173
350.50192,0.0131864065
350.57698,0.0124810249
350.61451,0.0121518137
350.68957,0.0115358767
350.76463,0.0109713461
350.80216,0.0107065953
350.87722,0.0102090076
350.98981,0.00953426134
351.06487,0.00912663834
351.13993,0.00874894955
351.21499,0.00839834923
351.32758,0.00791781632
351.40264,0.00762454608
351.4777,0.00735072754
351.55276,0.00709469032
351.62782,0.00685493964
351.70288,0.00663013462
351.853,0.00622065828
352.00312,0.00585796558
352.15324,0.00553526656
352.30336,0.00524696066
352.45348,0.00498839511
352.6036,0.00475567886
352.75372,0.00454553763
352.90384,0.00435520029
353.05396,0.00418230877
353.20408,0.0040248464
353.3542,0.00388108024
353.50432,0.00374951449
353.65444,0.0036288526
353.80456,0.00351796625
353.95468,0.00341586985
354.1048,0.00332169935
354.25492,0.00323469477
354.55516,0.00307957779
354.8554,0.00294601754
355.15564,0.00283044936
355.30576,0.00277849791
355.606,0.00268474603
355.94377,0.00259335086
356.28154,0.00251456834
356.50672,0.00246808505
356.95708,0.00238748454
357.40744,0.00232082915
357.70768,0.00228290728
358.30816,0.00222009157
358.6084,0.00219426268
359.20888,0.00215189105
359.50912,0.00213474562
360.1096,0.00210730823
361.01032,0.00208044822
361.91104,0.0020673005
362.81176,0.00206507159
364.01272,0.00207574172
365.21368,0.00209912249
366.594784,0.00213901391
368.231092,0.00220167978
369.477088,0.00225946142
370.738096,0.00232628081
372.640867,0.00244265972
374.205868,0.00255259707
375.1216,0.00262310934
376.255006,0.00271701753
377.756206,0.00285339055
379.6252,0.00304404278
380.961268,0.00319607935
381.794434,0.00329821435
383.213068,0.0034863365
383.798536,0.00356961524
384.969472,0.00374699152
386.2,0.00395038315
387.1,0.00411133557
388.0,0.00428362602
388.729,0.00443220836
389.629,0.00462777727
390.286,0.00477970324
391.6,0.00510924863
392.48425,0.00535242939
393.38425,0.00561982129
393.9895,0.00581201837
395.2,0.00622972513
396.172,0.00660124518
397.306,0.00708156852
398.062,0.00743364887
398.44,0.00762029144
399.196,0.00801677053
400.249,0.00862641179
400.825,0.00899176397
401.5,0.00945222918
401.896,0.00974009471
402.598,0.0102859221
402.949,0.0105773187
403.54975,0.0111075148
404.04925,0.0115813208
404.6995,0.0122480352
405.325,0.0129489652
405.775,0.0134936446
406.441,0.0143695379
407.1205,0.0153604689
407.8,0.0164651346
408.21175,0.0171976747
408.66175,0.0180596755
408.9745,0.0187002633
409.443625,0.0197317748
409.7125,0.0203647364
410.05,0.0212065199
410.428,0.022217535
410.806,0.0233082248
411.373,0.0251136628
411.7465,0.0264293216
412.1155,0.0278416136
412.48,0.0293599961
412.786,0.0307405989
413.146,0.0325037533
413.56,0.0347419033
413.929,0.0369545666
414.289,0.0393413906
414.64,0.0419181272
414.82,0.0433471989
415.09,0.0456437194
415.27,0.0472862662
415.45,0.0490266172
415.63,0.0508730113
415.9,0.0538617062
416.08,0.0560154811
416.35,0.0595180935
416.53,0.0620545985
416.8,0.0662014289
416.98,0.0692210729
417.16,0.0724696404
417.34,0.0759716872
417.61,0.0817623303
417.79,0.0860295048
417.88,0.0882993919
418.06,0.0931391896
418.24,0.0984206218
418.33,0.101244421
418.4875,0.106510083
418.69,0.113954798
418.825,0.119393468
418.96,0.125260233
419.1625,0.134968241
419.2975,0.142127077
419.4325,0.149911639
419.545,0.156931747
419.68,0.166071429
419.815,0.176087581
419.95,0.187098146
420.085,0.199241702
420.22,0.212681955
420.355,0.22761342
420.49,0.244268659
420.625,0.262927581
420.715,0.276644696
420.805,0.291519939
420.895,0.307689008
420.985,0.325308125
421.075,0.344557881
421.165,0.365647947
421.255,0.388822878
421.345,0.414369325
421.435,0.442625036
421.48,0.457891116
421.57,0.490984416
421.615,0.508941817
421.66,0.527937044
421.705,0.548052123
421.7725,0.580524504
421.8175,0.603854924
421.8625,0.62866453
421.9075,0.655081684
421.975,0.698037884
422.02,0.729133811
422.065,0.76241223
422.11,0.798083082
422.155,0.836382186
422.2,0.877575158
422.245,0.921962052
422.29,0.969882852
422.335,1.02172403
422.38,1.07792637
422.43625,1.15508779
422.48125,1.22306322
422.50375,1.25936488
422.5375,1.31697917
422.588125,1.41124134
422.61625,1.46812032
422.641562,1.52235031
422.669688,1.58626061
422.697812,1.65434199
422.725937,1.72696592
422.753359,1.80254264
422.778672,1.8768564
422.804688,1.95818995
422.83,2.04257141
422.856719,2.13776947
422.883438,2.23985909
422.90875,2.34354965
422.936875,2.46752741
422.965,2.60171174
422.993125,2.74725489
423.024063,2.92205224
423.055,3.11422863
423.083125,3.30601255
423.11125,3.51621342
423.128125,3.65217078
423.145,3.79622203
423.173125,4.05610378
423.19,4.22512937
423.206875,4.40500552
423.235,4.73153478
423.251875,4.94527616
423.26875,5.17390315
423.285625,5.41882945
423.3025,5.68164042
423.319375,5.96411869
423.33625,6.26827427
423.353125,6.59638027
423.37225,7.00045739
423.388,7.36184718
423.40825,7.86922227
423.4285,8.43102088
423.4465,8.98256486
423.4645,9.59012116
423.4825,10.2615203
423.5005,11.0060067
423.5095,11.4090094
423.523,12.0563096
423.532,12.5189239
423.541,13.0086661
423.55,13.5276925
423.5635,14.3663988
423.5725,14.9695648
423.586,15.9479761
423.595,16.6544139
423.6085,17.8052142
423.6175,18.6397891
423.631,20.005754
423.6445,21.5269784
423.658,23.2277694
423.6625,23.8394909
423.6715,25.137351
423.676,25.8261846
423.685,27.2910981
423.6895,28.0704672
423.6985,29.7321448
423.703,30.6184995
423.712,32.5135007
423.71875,34.0517346
423.7255,35.7008648
423.73225,37.4717061
423.74125,40.0433753
423.748,42.1481546
423.757,45.2198971
423.76375,47.7469414
423.76825,49.5497394
423.77275,51.4552964
423.7795,54.5236726
423.784,56.7221233
