energy [eV],cross section [b]
1e-05,8097.04283
1.06313949e-05,7853.78971
1.15784873e-05,7526.97384
1.25255796e-05,7238.0122
1.33164384e-05,7020.76153
1.41072971e-05,6822.07333
1.48981558e-05,6639.44915
1.56890145e-05,6470.83727
1.66796109e-05,6276.83193
1.76702073e-05,6099.40914
1.86608037e-05,5936.33678
2.02717898e-05,5697.1779
2.21329589e-05,5454.15062
2.3994128e-05,5240.04918
2.61686658e-05,5019.51443
2.84998879e-05,4811.79759
3.08311101e-05,4628.18475
3.27777707e-05,4490.16962
3.47244313e-05,4363.97252
3.76444222e-05,4193.43421
3.98369051e-05,4077.95928
4.22752103e-05,3960.28818
4.47135155e-05,3852.42482
4.71518208e-05,3753.08287
4.98980327e-05,3650.08167
5.29521513e-05,3545.13234
5.600627e-05,3448.94086
5.90603886e-05,3360.35832
6.44129085e-05,3220.69376
7.01510995e-05,3089.22306
7.58892904e-05,2973.07842
8.06809015e-05,2885.82501
8.78683183e-05,2768.70485
9.5055735e-05,2665.26441
0.000101057506,2587.57338
0.000107059276,2516.58583
0.000116061932,2420.74117
0.000122821601,2355.90427
0.000130339166,2289.8906
0.000137856732,2229.43354
0.000145374298,2173.80284
0.000153841174,2116.17814
0.000163257361,2057.5264
0.000177381641,1978.63127
0.000192694988,1903.29151
0.000210386467,1826.93323
0.000228077947,1759.85262
0.000248748176,1690.96671
0.000270907779,1626.30577
0.000293067383,1569.35047
0.000311571508,1526.67883
0.000339327697,1469.57565
0.000357831822,1435.39922
0.000378672629,1400.07242
0.000401850119,1364.20096
0.000425027608,1331.44207
0.000448205098,1301.38399
0.000474309417,1270.34259
0.000517856141,1224.17202
0.000575918439,1171.44205
0.000630463235,1129.13492
0.00068500803,1092.35556
0.000744144733,1057.50627
0.000812465252,1022.49422
0.000858012264,1001.73488
0.000932084412,971.615735
0.000989134684,951.016925
0.00107471009,923.616322
0.00116748975,897.817939
0.00123894853,880.233084
0.00134613669,856.926461
0.00141759546,843.119781
0.00159660797,813.410892
0.00177562048,789.17846
0.00199984403,764.541312
0.00222406757,744.648548
0.00236449407,734.063907
0.00264534706,716.263614
0.00296166587,700.364181
0.00331345052,686.471586
0.00370965818,674.31368
0.00392997351,668.777453
0.00437060417,659.716091
0.00464656189,655.136272
0.00547443505,645.024557
0.00651139418,637.423802
0.00772294816,632.611457
0.0085888491,630.731557
0.0107580313,628.88315
0.0190096644,628.027321
0.0232205189,625.068051
0.0298242901,616.226919
0.037356652,601.546961
0.046791372,579.121877
0.0734110514,509.399819
0.0816419364,488.514422
0.0971064273,451.58725
0.108717981,426.067485
0.115174705,412.706284
0.121631429,399.923991
0.1319338,380.683126
0.146185818,356.261895
0.160437836,334.164669
0.17563278,312.888524
0.185762744,299.878551
0.200957689,281.936527
0.213425666,268.483085
0.225893644,256.052251
0.238361622,244.544167
0.251711153,233.144721
0.267604067,220.687051
0.283496981,209.306201
0.291443438,203.980621
0.307336352,193.990629
0.315282809,189.301633
0.335698781,178.096856
0.356114752,167.976072
0.376021548,159.018402
0.394909994,151.250051
0.418337795,142.483165
0.441765597,134.55836
0.453479498,130.877311
0.476907299,124.018743
0.4886212,120.820367
0.508756325,115.648257
0.522864993,112.250496
0.551082329,105.958053
0.565190996,103.040857
0.593408332,97.61522
0.613545931,94.0454529
0.632929604,90.8237595
0.659639089,86.6970076
0.699703316,81.1078356
0.7264128,77.7337963
0.763643271,73.4398656
0.793367221,70.3151376
0.827994807,66.9745708
0.860170575,64.1281923
0.9047565,60.5450813
0.93448045,58.3634392
0.96812815,56.071865
0.999813975,54.0706004
1.05533813,50.8888324
1.11282415,47.9747707
1.17227205,45.3088428
1.20977367,43.7859759
1.24338646,42.5146967
1.29505669,40.7171194
1.3208918,39.8836925
1.3803397,38.1156
1.4397876,36.5362135
1.50373713,35.0240065
1.5586834,33.8633022
1.6181313,32.7379505
1.6775792,31.7365972
1.7370271,30.8494667
1.796475,30.0686676
1.8559229,29.387997
1.9153708,28.8028066
1.9748187,28.3099255
2.0342666,27.9076373
2.0937145,27.5957143
2.1531624,27.3755156
2.2126103,27.2501588
2.2720582,27.2247864
2.3315061,27.3069547
2.39265887,27.5148027
2.4504019,27.8397593
2.5098498,28.3238143
2.53957375,28.6303406
2.59902165,29.392263
2.6287456,29.8575917
2.67333153,30.6783068
2.71791745,31.6696303
2.75953098,32.7777649
2.78925493,33.6965036
2.8070893,34.3057882
2.83086846,35.1938232
2.85464762,36.1780031
2.89031636,37.8618872
2.9259851,39.8409595
2.94976426,41.3559586
2.96165384,42.1807905
2.97354342,43.0550067
2.99694392,44.9348347
3.00921216,46.0137955
3.03299132,48.313811
3.05677048,50.9300353
3.06866006,52.3745934
3.08649443,54.735976
3.1043288,57.3611336
3.12216317,60.2901787
3.13999754,63.5712321
3.15783191,67.2624135
3.17566628,71.4344314
3.19350065,76.1739855
3.19944544,77.8977887
3.21133502,81.5882843
3.21727981,83.5652073
3.22916939,87.8111114
3.23511418,90.0930012
3.24700376,95.0110731
3.25294855,97.6637203
3.26483813,103.402959
3.27672771,109.793268
3.2856449,115.07373
3.29456208,120.827478
3.30347927,127.112378
3.31239645,133.995319
3.31834124,138.954019
3.32428603,144.238811
3.33320322,152.841545
3.33914801,159.075243
3.3450928,165.751308
3.35400998,176.688619
3.35995477,184.666684
3.36589956,193.258725
3.37184435,202.528136
3.37778914,212.546485
3.38373393,223.394765
3.38967872,235.164873
3.39562351,247.961337
3.4015683,261.903372
3.40751309,277.1273
3.41197168,289.479669
3.41791647,307.336923
3.42386126,326.964552
3.42980605,348.593319
3.43277845,360.240021
3.43723704,378.854326
3.44318183,406.028339
3.44615423,420.728764
3.45061282,444.317117
3.45358521,461.151872
3.45804381,488.226435
3.4610162,507.592975
3.46547479,538.81034
3.46844719,561.190368
3.47290578,597.345738
3.47587818,623.32186
3.48033677,665.374793
3.48479536,711.504609
3.48925395,762.168645
3.49371255,817.869424
3.49817114,879.15334
3.50262973,946.605708
3.50708832,1020.84026
3.51154692,1102.48038
3.51451931,1161.32102
3.51749171,1223.88649
3.5204641,1290.31968
3.52403097,1375.29787
3.52759785,1466.10473
3.53116472,1562.70634
3.5347316,1664.88223
3.53829847,1772.16584
3.5430543,1921.75596
3.55494388,2306.38364
3.55851076,2415.3372
3.56207763,2515.89079
3.56445555,2576.5216
3.56683346,2630.79791
3.56921138,2677.70476
3.57158929,2716.30858
3.57515617,2756.9194
3.57753408,2771.59306
3.57967421,2775.95842
3.58110096,2774.16185
3.58347887,2762.84274
3.58585679,2741.35079
3.58823471,2710.15313
3.59180158,2646.65472
3.5941795,2594.43759
3.59655741,2535.45466
3.60012429,2436.59217
3.60369116,2328.43582
3.61795866,1864.85286
3.62271449,1716.40534
3.6250924,1645.24702
3.62984824,1510.09728
3.63460407,1385.21019
3.6393599,1270.83758
3.64381849,1172.96771
3.64827709,1083.72037
3.65273568,1002.5397
3.65719427,928.80626
3.66016667,883.473279
3.66462526,820.742309
3.66759765,782.172307
3.67057005,746.00316
3.67354244,712.073253
3.67651484,680.229994
3.67948723,650.329993
3.68245963,622.239009
3.68543202,595.831743
3.68840442,570.991516
3.69137681,547.609876
3.69434921,525.586166
3.6973216,504.827061
3.700294,485.246104
3.70326639,466.763245
3.70623879,449.304394
3.70921118,432.800985
3.71366978,409.699838
3.71961457,381.688846
3.72555936,356.500845
3.73150415,333.789535
3.73744894,313.257182
3.74339373,294.647256
3.74636612,285.992752
3.75231091,269.860529
3.75605083,260.451041
3.7612281,248.280738
3.76420049,241.709406
3.77014528,229.399848
3.77311768,223.632088
3.77906246,212.803732
3.78203486,207.718888
3.79095205,193.651526
3.79986923,181.166963
3.80878642,170.046583
3.8177036,160.107702
3.82662079,151.196859
3.83256558,145.762604
3.84148276,138.287121
3.84742755,133.711466
3.85634473,127.395905
3.86228953,123.517949
3.87120671,118.149929
3.8771515,114.844888
3.88904108,108.822163
3.89498587,106.077388
3.90687545,101.061973
3.91282024,98.7707061
3.92470982,94.5758316
3.9365994,90.8459406
3.94254419,89.1382101
3.95443377,86.0074924
3.97226814,81.9473887
3.99010251,78.5485501
4.00199209,76.6033924
4.01982646,74.1100791
4.03766083,72.0708238
4.0554952,70.4351247
4.07332957,69.1629389
4.09116394,68.2228287
4.10305352,67.7683466
4.12683268,67.2480809
4.13872226,67.1742868
4.16250142,67.3866273
4.174391,67.6703596
4.19817016,68.5933341
4.2182707,69.7504445
4.22921356,70.5305048
4.24015642,71.4203052
4.26204214,73.5453598
4.272985,74.790607
4.29487072,77.6777834
4.30581358,79.3350339
4.32222787,82.1137366
4.33317073,84.1772715
4.34958502,87.6208934
4.36599931,91.5275832
4.3824136,95.9574806
4.39882789,100.983095
4.41524218,106.692149
4.43165647,113.191251
4.44807076,120.610681
4.45354219,123.315027
4.46448505,129.110678
4.46995648,132.217152
4.48089934,138.88978
4.48637077,142.474904
4.49731363,150.196013
4.50278506,154.355938
4.51372792,163.342063
4.51919935,168.198787
4.53014221,178.726133
4.53561364,184.436112
4.5465565,196.860983
4.55476365,207.161278
4.56297079,218.414968
4.57117794,230.739545
4.57664937,239.617148
4.5821208,249.076223
4.59032794,264.466873
4.59579937,275.612427
4.6012708,287.541558
4.60947795,307.066512
4.61494938,321.293036
4.62042081,336.598633
4.62862795,361.821128
4.63409938,380.328958
4.63957081,400.359107
4.64504224,422.07693
4.65051367,445.669934
4.6559851,471.351235
4.66145653,499.363615
4.66692796,529.984288
4.67239939,563.530478
4.67787082,600.365974
4.68060654,620.145486
4.68607797,662.718053
4.6915494,709.746533
4.69428511,735.114494
4.69975654,789.97216
4.70522797,850.9521
4.70796369,883.999607
4.71206726,937.098201
4.71480297,975.037522
4.71890655,1036.10977
4.72301012,1102.64284
4.72711369,1175.20922
4.73121726,1254.43752
4.73532084,1341.0132
4.73942441,1435.67662
4.74352798,1539.21685
4.74763155,1652.45942
4.75036727,1733.76012
4.75310298,1819.99341
4.7558387,1911.39619
4.75857441,2008.18793
4.76131013,2110.56049
4.76404584,2218.66558
4.76650799,2320.94226
4.76979084,2464.68125
4.77416799,2669.1705
4.77635656,2776.63933
4.7807337,3000.85945
4.79605371,3828.70868
4.80043085,4049.10163
4.80371371,4198.58541
4.80590228,4288.06112
4.80809085,4367.75432
4.81027943,4436.3356
4.812468,4492.597
4.81575086,4551.67902
4.81793943,4573.08806
4.82001857,4579.60818
4.82231657,4571.00133
4.82450514,4547.52703
4.82669372,4509.60072
4.82888229,4457.93926
4.83107086,4393.4941
4.83325943,4317.40873
4.835448,4230.97045
4.83763658,4135.55996
4.84091943,3978.73933
4.84420229,3809.70121
4.8595223,2976.81616
4.86389944,2752.03277
4.86608801,2644.39213
4.87046516,2439.74421
4.87374801,2296.02308
4.87757802,2139.11068
4.88031373,2034.0536
4.8844173,1887.11417
4.88852088,1752.37026
4.89262445,1629.04885
4.89672802,1516.31162
4.90083159,1413.30503
4.90493517,1319.19343
4.90903874,1233.17978
4.91314231,1154.51754
4.91724588,1082.51645
4.9199816,1037.90176
4.92408517,975.625828
4.92682089,936.973293
4.93092446,882.925182
4.93366017,849.317606
4.93776375,802.235386
4.94049946,772.902579
4.94597089,718.710941
4.9487066,693.667472
4.95417803,647.27089
4.95964947,605.307693
4.9651209,567.261896
4.97059233,532.685862
4.97606376,501.190596
4.98153519,472.43742
4.98700662,446.130851
4.99247805,422.012524
4.99794948,399.856017
5.00342091,379.462446
5.00889234,360.656705
5.01709948,335.092198
5.02257091,319.618379
5.02804234,305.264615
5.03624949,285.614962
5.04445663,267.961814
5.05266378,252.053473
5.05813521,242.310319
5.06360664,233.19161
5.07181378,220.576573
5.08002093,209.106868
5.08822807,198.654561
5.09917093,186.111761
5.10464236,180.37437
5.11558522,169.846562
5.12105665,165.013858
5.13199951,156.118115
5.13747094,152.022482
5.1484138,144.463811
5.15388523,140.97537
5.16482809,134.523971
5.17029952,131.541019
5.18124238,126.016096
5.19218524,121.027184
5.19765667,118.716315
5.21407096,112.445841
5.23048525,107.060977
5.24689954,102.445649
5.2578424,99.7490585
5.27425669,96.2161416
5.29067098,93.2396631
5.30708527,90.765972
5.31802813,89.3745409
5.33444242,87.6477434
5.35085671,86.3284596
5.367271,85.3951853
5.37821386,84.979762
5.39646936,84.6457715
5.41139586,84.7024251
5.43273068,85.2996867
5.4540655,86.5186981
5.46473291,87.3704239
5.48073403,88.9660444
5.49140144,90.2521594
5.50740255,92.5368529
5.51806996,94.312561
5.53407107,97.3870452
5.54473848,99.7329195
5.55540589,102.336543
5.57140701,106.771368
5.58207442,110.116613
5.59807553,115.790136
5.60874294,120.05978
5.62474406,127.297535
5.63541147,132.7494
5.64074518,135.68445
5.65141259,142.013492
5.66208,149.01637
5.6674137,152.796539
5.67808111,160.974035
5.68341481,165.398262
5.69408222,174.993713
5.69941593,180.199376
5.71008334,191.524452
5.71541704,197.688443
5.7234176,207.6321
5.73141816,218.49956
5.73941872,230.401614
5.74475242,238.973421
5.75275298,252.893679
5.76075354,268.23615
5.76875409,285.191486
5.77675465,303.982808
5.78475521,324.872349
5.79275577,348.169682
5.79808947,365.217466
5.80342318,383.622642
5.80609003,393.377752
5.81142373,414.089681
5.81675744,436.547396
5.82209114,460.94302
5.824758,473.934566
5.8300917,501.655048
5.83542541,531.916092
5.84075911,565.019628
5.84609282,601.310793
5.85142652,641.184833
5.85676023,685.095101
5.86209393,733.56229
5.86742764,787.184974
5.87009449,816.140879
5.87409477,862.521518
5.87676162,895.5582
5.87942847,930.419053
5.88209533,967.225455
5.8860956,1026.36938
5.88941439,1079.32247
5.89276274,1136.63865
5.89542959,1185.30341
5.89942987,1263.7299
5.90209672,1319.91071
5.906097,1410.53105
5.91009728,1509.41065
5.91409756,1617.30013
5.91809784,1734.96664
5.92076469,1819.21779
5.92343154,1908.3651
5.92743182,2051.68935
5.93009867,2153.87651
5.93276552,2261.50787
5.93516569,2363.074
5.93836591,2505.38425
5.94263288,2706.97785
5.94903332,3031.82815
5.96290096,3776.00903
5.96716792,3990.7622
5.97036814,4137.80032
5.97250163,4226.73804
5.97463511,4306.90084
5.97676859,4377.05056
5.97890207,4436.04161
5.98103555,4482.86419
5.98316904,4516.68508
5.98530252,4536.88332
5.98754267,4543.01663
5.98956948,4535.14503
5.99170296,4513.22452
5.99490319,4455.05029
5.99703667,4400.41064
5.99917015,4334.15288
6.00130363,4257.37045
6.00343711,4171.2691
6.00663734,4027.44099
6.0109043,3815.07778
6.02583868,3010.79187
6.03010564,2790.77832
6.03223912,2684.97118
6.03650609,2482.99758
6.03863957,2387.12966
6.0434399,2184.34342
6.04610675,2079.42482
6.04877361,1979.93967
6.05144046,1885.74914
6.05410731,1796.67764
6.05677416,1712.5241
6.05944102,1633.0709
6.0634413,1522.20672
6.06744158,1420.62983
6.07144185,1327.57388
6.07544213,1242.30313
6.07944241,1164.12427
6.08344269,1092.39273
6.08744297,1026.51503
6.09144325,965.948647
6.0941101,928.276191
6.09811038,875.488612
6.10077723,842.597134
6.10477751,796.426188
6.10744436,767.604442
6.11277807,714.236095
6.11544492,689.517498
6.12077862,643.624286
6.12611233,601.999624
6.13144603,564.158026
6.13677974,529.676722
6.14211344,498.187002
6.14744715,469.366745
6.15278085,442.933989
6.15811456,418.641419
6.16344826,396.27165
6.16878197,375.633189
6.17411567,356.556982
6.18211623,330.549398
6.18744994,314.760903
6.19278364,300.080616
6.2007842,279.924175
6.20878476,261.749361
6.21678532,245.309126
6.22478587,230.39302
6.23278643,216.821004
6.24078699,204.438425
6.24878754,193.111906
6.2567881,182.725994
6.26478866,173.180379
6.27545607,161.610483
6.28078977,156.271195
6.29145718,146.386566
6.29679089,141.806947
6.3074583,133.297363
6.31812571,125.566288
6.32345941,121.963472
6.33412682,115.232227
6.34746109,107.616095
6.36079535,100.7745
6.37146276,95.7901225
6.38213017,91.1917424
6.39813128,84.9341842
6.40879869,81.1409036
6.4194661,77.616884
6.43013351,74.337154
6.44613463,69.8278253
6.45680204,67.0671768
6.46746945,64.4833219
6.47813686,62.0613943
6.48880427,59.788056
6.49947168,57.6513127
6.51013909,55.6403557
6.5208065,53.7454242
6.54214132,50.2691333
6.56347614,47.1611484
6.58481096,44.3707389
6.60614578,41.8556282
6.6274806,39.5803602
6.64881542,37.515022
6.67015024,35.6342364
6.68081765,34.7561603
6.70481932,32.9170643
6.72348729,31.6051524
6.74748896,30.0535228
6.76082322,29.251036
6.78749175,27.7604599
6.80082601,27.0675214
6.82749454,25.7756297
6.85416306,24.5966405
6.86749732,24.0453469
6.90750011,22.5272141
6.9475029,21.1873851
6.97417142,20.3795253
7.01417421,19.2787911
7.04084274,18.6106237
7.08084552,17.6946171
7.10751405,17.1353378
7.14751684,16.3645038
7.18751963,15.6661736
7.24085667,14.8327327
7.2675252,14.4529237
7.32086225,13.7578722
7.37683289,13.1097725
7.42753635,12.5846048
7.45420488,12.32935
7.53421045,11.6394897
7.5875475,11.2351331
7.66755307,10.6991891
7.72089013,10.3829175
7.8008957,9.96156097
7.88090127,9.59562334
7.96090685,9.2775451
8.0142439,9.08903033
8.120918,8.76183986
8.17425505,8.62073345
8.28092915,8.37858544
8.3342662,8.27596725
8.4409403,8.10450525
8.49427735,8.03468419
8.60095145,7.92501897
8.70418825,7.8554112
8.81953485,7.81896587
8.93447975,7.82602297
9.04942465,7.87768158
9.16436955,7.97669172
9.23991079,8.06959487
9.3367869,8.22417318
9.42299558,8.39872543
9.50920425,8.61250328
9.59541293,8.87087773
9.6816216,9.18064467
9.76783028,9.55042725
9.85403895,9.99122995
9.9115114,10.3313857
9.94024763,10.5172109
9.99772008,10.9240569
10.0264563,11.1467751
10.0839288,11.6356913
10.112665,11.9041481
10.1701374,12.4956185
10.1988736,12.8216876
10.2563461,13.5434491
10.2994504,14.1541056
10.3281867,14.5989027
10.3569229,15.0772604
10.4000272,15.8651399
10.4287634,16.4429687
10.4718678,17.3999937
10.500604,18.1060389
10.5437083,19.2830818
10.5724446,20.1574937
10.5868127,20.6248992
10.6155489,21.6264554
10.6442851,22.7266839
10.6586533,23.3178839
10.6873895,24.5918579
10.7017576,25.2788877
10.7218729,26.302657
10.7391147,27.242719
10.7563564,28.2459801
10.7735981,29.3182391
10.7965871,30.8665617
10.8080816,31.6964609
10.8310706,33.4800727
10.8425651,34.4393456
10.8655541,36.5085507
10.888543,38.8029362
10.911532,41.3564775
10.934521,44.2098138
10.9517627,46.5756243
10.9632572,48.2735702
10.9747517,50.0775067
10.9862462,51.9964541
10.9977407,54.0404122
11.0149824,57.3653853
11.0264769,59.7732745
11.0379714,62.3509565
11.0494659,65.114778
11.0609604,68.0830947
11.0724549,71.2765747
11.0839494,74.7185543
11.0954439,78.4354606
11.1069384,82.4573127
11.1184328,86.8183201
11.1299273,91.5576005
11.1414218,96.7200426
11.1529163,102.357351
11.1644108,108.529316
11.1701581,111.837066
11.1816525,118.944716
11.193147,126.782958
11.1988943,131.007521
11.2103888,140.140213
11.2218833,150.296765
11.2276305,155.807026
11.2362514,164.674811
11.2419986,171.024928
11.2506195,181.278161
11.2563667,188.645455
11.2649876,200.584064
11.2707348,209.194345
11.2793557,223.202366
11.2879766,238.681976
11.2965974,255.842543
11.3052183,274.931089
11.3138392,296.24046
11.3167128,303.895559
11.32246,320.119561
11.3253337,328.720255
11.3310809,346.986242
11.3339545,356.689837
11.3397018,377.343592
11.3425754,388.340154
11.3483227,411.800642
11.3511963,424.321092
11.3569435,451.098761
11.3626908,480.427055
11.368438,512.624427
11.3741853,548.057396
11.3799325,587.14873
11.3856797,630.387035
11.3899902,665.874228
11.3928638,691.136672
11.3957374,717.784399
11.398611,745.912274
11.4029215,791.105011
11.4057951,823.397631
11.4086687,857.563664
11.4115423,893.735335
11.4158528,952.067212
11.4187264,993.898
11.4216,1038.27911
11.4244736,1085.39176
11.4287841,1161.60877
11.4316577,1216.42327
11.4359681,1305.20978
11.4402786,1402.59301
11.444589,1509.42645
11.4488994,1626.59553
11.4532099,1754.98839
11.4560835,1847.24
11.4589571,1945.08413
11.4618307,2048.71358
11.464417,2147.04688
11.4678653,2285.72452
11.4701642,2382.97241
11.474762,2588.64769
11.4770609,2696.75764
11.4816587,2922.13748
11.4966016,3687.82121
11.5011994,3905.41267
11.5046477,4051.63353
11.5069466,4138.22458
11.5092455,4214.389
11.5126939,4306.12707
11.5161422,4367.42229
11.5184411,4389.943
11.5206251,4397.19993
11.5241883,4379.19584
11.5264872,4348.30118
11.5287861,4302.98277
11.531085,4244.14395
11.5333839,4172.9168
11.5356828,4090.61007
11.5379817,3998.65316
11.5414301,3845.89674
11.5448784,3679.83869
11.5598213,2912.06189
11.5644191,2686.42082
11.5690169,2473.52157
11.5713158,2372.48201
11.5759136,2181.83893
11.5796493,2038.31254
11.5839597,1885.17629
11.5868333,1790.26175
11.5897069,1700.84377
11.5925806,1616.68117
11.5954542,1537.51664
11.5983278,1463.0851
11.6012014,1393.12
11.6040751,1327.35813
11.6083855,1236.03777
