energy [eV],cross section [b]
1e-05,26.0984184
1.09561112e-05,24.9336566
1.15935186e-05,24.2385456
1.2230926e-05,23.5985065
1.33495525e-05,22.5881589
1.45494366e-05,21.6367038
1.57493207e-05,20.7961659
1.72551308e-05,19.8680415
1.82590042e-05,19.3141518
1.97648143e-05,18.56384
2.10246383e-05,17.9990639
2.29143742e-05,17.2409099
2.41741982e-05,16.7856492
2.55946264e-05,16.3132235
2.7966175e-05,15.6062171
2.95472075e-05,15.1829429
3.11282399e-05,14.7923406
3.41044456e-05,14.1321644
3.70806514e-05,13.553158
4.03097979e-05,12.9989677
4.40448259e-05,12.4355995
4.77798539e-05,11.9396546
5.05873038e-05,11.6036175
5.37121851e-05,11.2610208
5.83995069e-05,10.7996474
6.34851933e-05,10.3580485
6.74068035e-05,10.0522272
7.13284138e-05,9.77198695
7.5250024e-05,9.51394942
7.9671567e-05,9.24618286
8.45930427e-05,8.97318935
9.19752562e-05,8.60555033
9.99848667e-05,8.25366832
0.000109249271,7.89595873
0.000118513676,7.5810595
0.000129352801,7.25648358
0.000137103791,7.04838146
0.000148730275,6.7672845
0.000162332975,6.47754957
0.000172060181,6.29178578
0.000181787386,6.12113895
0.000191514591,5.96366408
0.000203721874,5.78222876
0.000215929156,5.61640544
0.000228136439,5.46407637
0.000240343721,5.32350533
0.000263323252,5.08591934
0.00027864294,4.94413186
0.000293962627,4.81357784
0.000320848112,4.60748896
0.000349686573,4.41341286
0.000378525034,4.24196145
0.000402652501,4.11290624
0.000438843702,3.93966286
0.000475034902,3.78661558
0.00050531398,3.67141355
0.000535593058,3.56612432
0.000565872136,3.46940325
0.000596151214,3.38014791
0.000634150336,3.27731202
0.000672149457,3.18332486
0.000710148579,3.09698611
0.000748147701,3.01731172
0.000795835192,2.92551454
0.000867366428,2.80228623
0.000938897664,2.69342344
0.00102866672,2.57321681
0.00111843577,2.46778977
0.00121583408,2.36688132
0.00129093864,2.29699899
0.00140359548,2.20288879
0.00147870004,2.14621624
0.00157295348,2.08092073
0.00166720692,2.0212437
0.00176146036,1.96642303
0.0018557138,1.91583387
0.00197399838,1.85754737
0.00209228295,1.80427624
0.00221056753,1.75534017
0.00240307349,1.68356376
0.00262573764,1.61059865
0.00284840179,1.54636591
0.00310891335,1.48015932
0.00338834861,1.41781186
0.00366778387,1.36273262
0.00390157114,1.32127326
0.00413535841,1.28338136
0.00448603932,1.23219831
0.00474963014,1.19751822
0.00504302451,1.16216115
0.00533641888,1.12976158
0.00562981325,1.09992894
0.00596060997,1.06897148
0.00632880904,1.03740971
0.00688110764,0.994905601
0.00748034481,0.954223196
0.00817345911,0.912867014
0.00886657342,0.876460278
0.00967750004,0.83893475
0.0102573886,0.814875211
0.0111272213,0.782376414
0.0121449042,0.748878912
0.0128726429,0.727401942
0.0139642508,0.698391585
0.0147847626,0.678735032
0.0156980477,0.658694755
0.0166113327,0.64033077
0.0175246177,0.623421702
0.0185543297,0.605875077
0.020273538,0.579615732
0.0219927464,0.556499041
0.0239329079,0.533464511
0.0260548158,0.5112794
0.0283192634,0.490411097
0.0301243543,0.475490198
0.0328319906,0.455460374
0.035539627,0.437765505
0.0378049492,0.424446157
0.0400702715,0.412272872
0.0434682549,0.395829582
0.0460223638,0.384688076
0.0488652593,0.373329048
0.0517081549,0.362920139
0.0545510504,0.353335874
0.0595402269,0.338206362
0.0631079555,0.328506019
0.0666756842,0.31959503
0.0724820965,0.306524882
0.0791981476,0.29323819
0.0859141987,0.281541555
0.0937718126,0.269485396
0.0993907429,0.261755525
0.107819138,0.251314213
0.114154378,0.244239444
0.121205928,0.23702652
0.131783252,0.227312822
0.138834801,0.221463242
0.147684235,0.214723569
0.156533668,0.208563769
0.165383102,0.202905184
0.179785391,0.194605422
0.196443958,0.18616807
0.207549669,0.181116678
0.218655381,0.17645514
0.239561265,0.168576316
0.26046715,0.161666054
0.283149777,0.155051815
0.300640518,0.150471147
0.318131259,0.146273561
0.344367371,0.140587283
0.366317603,0.136306989
0.399242951,0.13056097
0.421193184,0.127110467
0.445941664,0.123529779
0.487261757,0.118170936
0.514808486,0.114962559
0.542355215,0.112001746
0.594210402,0.106997326
0.628780527,0.104010633
0.663350651,0.101260468
0.72401994,0.0969189216
0.78909628,0.0928301725
0.85417262,0.0892178294
0.908618218,0.0864985697
0.963063816,0.0840131532
1.04473221,0.0806557037
1.14028222,0.0771947623
1.20860943,0.0749755861
1.27693664,0.0729368553
1.34526385,0.0710553569
1.47388603,0.0678750218
1.55963415,0.0659768358
1.64538226,0.0642288826
1.79586704,0.0614692775
1.95728311,0.0588701076
2.11869918,0.0565735551
2.32127037,0.054037219
2.45631783,0.0525233082
2.65888902,0.0504721739
2.82836859,0.048927943
3.08258793,0.0468545221
3.33680728,0.0450223338
3.54949785,0.043642874
3.76218843,0.0423818377
3.97487901,0.0412231688
4.18756958,0.0401537032
4.45448838,0.0389212133
4.85486658,0.0372661638
5.25524478,0.0358034587
5.7577046,0.0341875998
6.26016441,0.0327696937
6.80532711,0.0314118444
7.22570609,0.030471033
7.85627455,0.0292033862
8.54043356,0.027989278
9.06799361,0.0271479621
9.59555366,0.0263766184
10.3868937,0.0253310656
11.0489621,0.024543494
11.7110304,0.0238232269
12.3730987,0.0231611488
13.0351671,0.0225497855
14.2814739,0.0215155556
15.5277808,0.0206074096
16.8800083,0.0197371231
18.4440773,0.0188512221
20.0081463,0.0180702172
21.8380684,0.0172639683
23.1466341,0.016746304
25.1094828,0.0160460478
26.5848664,0.0155708523
28.227068,0.0150857235
30.6903704,0.0144312573
32.332572,0.014036451
34.3934742,0.0135808715
36.4543763,0.0131637859
38.5152785,0.0127800003
41.8693587,0.0122158811
45.7488926,0.0116408049
49.6284265,0.0111330608
54.1673854,0.0106080949
59.0360568,0.0101120718
63.9047282,0.00967240423
67.9780631,0.00934047026
72.051398,0.00903630394
78.1614003,0.00862415878
82.75401,0.00834400583
87.8658945,0.00805759254
92.977779,0.00779439911
98.0896634,0.00755140438
103.853219,0.00729855674
110.268444,0.00704001937
119.891283,0.00669059424
130.331944,0.00635474276
142.40825,0.00601187474
154.484556,0.00570880376
163.146243,0.00551185656
172.418745,0.00531722102
186.327498,0.00505225261
198.924171,0.00483608473
211.603745,0.00463786673
224.28332,0.00445638918
236.962895,0.00428945474
258.595852,0.00403321457
267.549235,0.0039363139
285.456,0.00375636017
299.374028,0.00362783237
313.292056,0.00350804899
333.261524,0.00334967976
363.215727,0.00313767325
393.16993,0.00295123641
418.230874,0.00281164799
443.291818,0.00268480081
468.352761,0.00256903435
502.362992,0.00242723543
529.210852,0.00232610495
547.109426,0.00226336357
578.559983,0.0021612156
605.663948,0.00208061735
638.111948,0.0019921282
675.903983,0.00189876805
694.8,0.0018555962
735.946533,0.0017688074
756.5198,0.00172880406
796.304,0.00165719949
847.056,0.00157570076
895.728,0.00150662104
952.105757,0.00143627639
1005.98751,0.00137755815
1055.264,0.00133031076
1110.8,0.00128368414
1173.2,0.00123884752
1223.86879,0.00120780547
1266.176,0.00118531213
1328.992,0.00115733583
1385.776,0.00113736531
1440.064,0.00112284051
1497.888,0.00111221649
1552.15501,0.001106824
1603.344,0.0011059081
1673.232,0.00111154449
1708.176,0.00111754653
1759.344,0.00113050519
1793.04,0.0011419687
1832.976,0.00115886692
1876.24,0.00118165835
1909.52,0.00120273675
1944.464,0.00122859801
1976.08,0.0012556823
2009.36,0.00128846363
2042.64,0.00132622336
2075.92,0.00136970051
2109.2,0.00141980222
2142.48,0.00147765059
2159.12,0.00150990425
2192.4,0.00158210717
2217.36,0.00164398291
2234.0,0.00168946946
2250.64,0.00173875769
2275.6,0.00182073086
2292.24,0.00188144947
2308.88,0.0019476882
2333.84,0.00205889012
2348.4,0.00213126238
2360.88,0.00219829614
2379.6,0.00230858309
2392.08,0.00238939467
2404.56,0.00247677134
2418.95394,0.00258665989
2436.23848,0.00273329439
2450.32,0.00286635093
2466.96,0.00304187679
2479.44,0.00318849262
2491.92,0.00334987417
2500.24,0.00346667458
2508.56,0.00359165723
2521.04,0.00379623149
2529.36,0.00394535447
2537.68,0.00410589875
2546.0,0.00427907649
2554.32,0.00446626658
2562.64,0.00466904295
2570.96,0.00488920877
2577.2,0.00506698099
2583.44,0.00525668552
2591.76,0.00553011705
2600.08,0.00582974033
2608.4,0.00615905573
2616.72,0.00652217271
2625.04,0.00692394186
2633.36,0.00737012184
2641.68,0.00786759184
2647.92,0.00827926817
2654.16,0.00872852823
2658.32,0.00905124018
2664.56,0.00957412407
2668.72,0.00995125219
2674.96,0.0105649692
2679.12,0.0110096193
2685.36,0.0117367436
2691.6,0.0125457537
2697.84,0.0134495465
2704.08,0.0144636713
2706.16,0.0148293834
2710.32,0.0156070141
2712.4,0.0160206968
2716.56,0.0169026966
2718.64,0.0173731942
2722.8,0.0183792704
2726.96,0.0194813724
2729.04,0.0200723251
2733.2,0.0213429639
2735.28,0.0220266792
2739.44,0.0235023128
2741.52,0.0242994115
2745.68,0.0260269403
2748.8,0.0274526999
2751.92,0.0290046952
2755.04,0.030698361
2758.16,0.0325515693
2761.28,0.0345851053
2763.36,0.036052807
2765.44,0.0376195694
2768.56,0.0401757722
2770.64,0.042032656
2772.72,0.0440257392
2775.84,0.0473011821
2777.4,0.0490819992
2779.48,0.0516219586
2781.04,0.0536623133
2783.12,0.0565817867
2784.94,0.0593415787
2787.02,0.0627567203
2788.97,0.0662401129
2790.92,0.0700287306
2792.9025,0.0742313397
2794.885,0.0788322012
2796.9,0.0839702199
2798.98,0.0898297784
2801.112,0.0965080113
2802.204,0.100225628
2803.296,0.104165664
2804.336,0.108141407
2805.376,0.112352516
2806.416,0.11681794
2807.664,0.12254171
2808.704,0.12764326
2809.952,0.13420223
2810.992,0.140066611
2812.24,0.147631351
2813.28,0.154418369
2814.528,0.163205192
2815.776,0.17277088
2817.024,0.183210085
2818.272,0.194632236
2819.52,0.207164383
2820.768,0.220954702
2821.392,0.228374806
2822.224,0.238866915
2823.472,0.256020521
2824.096,0.265301165
2824.928,0.278483741
2825.552,0.289027916
2826.384,0.304046291
2827.008,0.316092873
2827.84,0.33330231
2828.464,0.347148988
2829.296,0.366994349
2830.128,0.388589602
2830.96,0.412145106
2831.792,0.437903515
2832.624,0.466145863
2833.456,0.497198994
2834.288,0.531444724
2835.12,0.569331174
2835.536,0.589801241
2836.16,0.622623243
2836.576,0.64603743
2836.992,0.670785305
2837.408,0.696968685
2838.032,0.739182313
2838.448,0.769466677
2839.072,0.818459437
2839.488,0.853731406
2840.112,0.911006322
2840.528,0.952400021
2841.152,1.01989033
2841.568,1.06887271
2842.192,1.1490938
2842.608,1.20758499
2843.232,1.30385016
2843.44,1.33844339
2843.856,1.41177645
2844.064,1.45066038
2844.48,1.5332581
2844.688,1.57714528
2845.104,1.67057284
2845.312,1.72032289
2845.728,1.82647333
2846.144,1.94235497
2846.456,2.03634737
2846.872,2.17216346
2847.288,2.32133711
2847.6,2.44299458
2848.016,2.6197775
2848.432,2.81521922
2848.848,3.03181676
2849.056,3.14893166
2849.264,3.27244705
2849.472,3.4027911
2849.68,3.5404229
2849.888,3.68583443
2850.096,3.83955239
2850.304,4.00214004
2850.616,4.26397857
2850.824,4.45145857
2851.032,4.65008863
2851.24,4.86061215
2851.552,5.20042327
2851.76,5.44419436
2852.072,5.83788138
2852.28,6.12034854
2852.592,6.57637195
2852.904,7.07392999
2853.216,7.61594876
2853.528,8.204959
2853.736,8.62467761
2853.9232,9.02122612
2854.1728,9.57764189
2854.3392,9.96586596
2854.672,10.7816546
2855.1712,12.0893172
2856.0864,14.5872416
2856.4192,15.4417419
2856.6688,16.0283157
2856.8352,16.3837888
2857.0016,16.7047039
2857.168,16.9860298
2857.3344,17.2231005
2857.5008,17.4117947
2857.6672,17.548705
2857.8336,17.6312872
2857.99168,17.6579808
2858.2496,17.5923769
2858.416,17.4794296
2858.5824,17.3134259
2858.7488,17.0973975
2858.9152,16.835162
2859.0816,16.5311606
2859.248,16.1902827
2859.4976,15.6211369
2859.8304,14.7817541
2860.9952,11.6161808
2861.328,10.7542217
2861.4944,10.3403176
2861.8272,9.55134517
2861.9936,9.17736977
2862.16,8.81744707
2862.368,8.38740005
2862.576,7.97925892
2862.784,7.59261615
2863.096,7.05161414
2863.304,6.71581238
2863.512,6.39890832
2863.824,5.95699776
2864.136,5.55244376
2864.448,5.18215555
2864.76,4.84315869
2864.968,4.63315125
2865.28,4.34016713
2865.488,4.15846073
2865.8,3.90462298
2866.008,3.74695979
2866.32,3.52635419
2866.528,3.38909636
2866.84,3.19670009
2867.048,3.07677249
2867.36,2.90835388
2867.568,2.80317219
2867.984,2.608299
2868.4,2.43204047
2868.816,2.27223326
2869.232,2.12699785
2869.648,1.99469913
2870.064,1.87391237
2870.48,1.76339384
2870.896,1.66205563
2871.104,1.61452642
2871.52,1.52520751
2871.936,1.44289712
2872.352,1.36690257
2872.56,1.33107967
2872.976,1.26343383
2873.392,1.20070262
2874.016,1.11484303
2874.64,1.03770673
2875.264,0.968174305
2875.888,0.905296685
2876.512,0.848265631
2877.136,0.796389867
2877.552,0.764373376
2878.176,0.719811406
2878.8,0.678996816
2879.424,0.641526395
2879.84,0.61822871
2880.464,0.585573893
2880.88,0.565210582
2881.712,0.527527322
2882.544,0.493472271
2882.96,0.477662974
2883.792,0.448233633
2884.624,0.42143588
2885.04,0.408927765
2885.872,0.385524529
2886.704,0.364074156
2887.536,0.344366967
2888.368,0.326220513
2889.2,0.309475466
2890.032,0.293992211
2890.864,0.279648005
2891.696,0.266334603
2892.528,0.253956259
2893.776,0.236958798
2894.608,0.226566739
2895.44,0.21685096
2896.688,0.203422269
2897.52,0.195160474
2898.352,0.187399609
2899.6,0.176612504
2900.848,0.166747488
2902.096,0.157703301
2903.76,0.146771241
2904.592,0.141737822
2906.256,0.132439583
2907.088,0.128140901
2908.752,0.120169894
2909.584,0.116471284
2910.416,0.112948115
2911.664,0.107969067
2912.704,0.104079279
2913.952,0.0996972437
2915.408,0.0949454202
2916.24,0.0923906528
2918.32,0.0864666574
2920.4,0.0811356102
2922.48,0.0763235421
2924.56,0.0719678356
2926.64,0.0680152168
2928.72,0.0644201519
2930.8,0.0611435575
2932.88,0.0581517567
2934.96,0.0554156295
2937.04,0.0529099178
2940.16,0.0495361051
2942.24,0.0475163755
2944.32,0.045661662
2947.44,0.0431595501
2949.52,0.0416612208
2951.6,0.0402870765
2954.09,0.038793518
2956.29,0.0376018149
2959.98,0.0358520714
2963.67,0.0343914362
2966.13,0.0335684019
2968.59,0.0328611748
2972.28,0.0320124434
2975.6625,0.0314566913
2977.5075,0.0312443534
2979.3525,0.031097758
2981.1975,0.0310189009
2983.0425,0.0310104314
2984.8875,0.0310757289
2986.7325,0.0312189994
2989.5,0.0315916702
2991.96,0.0320979609
2993.19,0.0324192575
2995.65,0.0332132637
2996.88,0.0336932098
2999.34,0.0348407192
3001.185,0.0358864155
3002.415,0.0366834934
3003.645,0.0375692824
3004.875,0.038552469
3006.72,0.0402319822
3007.95,0.0415053547
3009.18,0.0429178114
3010.41,0.0444856055
3011.64,0.0462276016
3012.87,0.0481657869
3014.1,0.0503259033
3015.33,0.0527382355
3016.56,0.0554385985
3017.79,0.0584695865
3019.02,0.0618821635
3019.635,0.063750254
3020.5575,0.0667791977
3021.1725,0.0689642606
3021.7875,0.0712949831
3022.4025,0.0737839154
3023.0175,0.0764450023
3023.6325,0.0792937727
3024.2475,0.0823475604
3024.8625,0.0856257613
3025.785,0.0910121679
3026.7075,0.0970384391
3027.3225,0.10146122
3027.9375,0.106248954
3028.5525,0.111442012
3029.1675,0.117086521
3029.7825,0.12323538
3030.3975,0.129949484
3031.0125,0.137299224
3031.6275,0.145366315
3032.2425,0.154246057
3032.8575,0.164050134
3033.4725,0.174910118
3034.0875,0.186981862
3034.7025,0.200451091
3035.01,0.207777685
3035.47125,0.219596399
3035.69763,0.225792621
3036.10441,0.237645713
3036.39375,0.246687058
3036.70125,0.256904209
3037.00875,0.267802706
3037.31625,0.279444243
3037.62375,0.291897658
3038.085,0.312270996
3038.3925,0.327111771
3038.7,0.343077898
3039.0075,0.360285729
3039.46875,0.388718758
3039.77625,0.409647423
3039.93,0.420769924
3040.2375,0.444457405
3040.545,0.470258163
3040.69875,0.484030266
3041.00625,0.51349786
3041.31375,0.545803426
3041.4675,0.563135442
3041.775,0.600421651
3041.92875,0.62049477
3042.23625,0.663837642
3042.4515,0.696982582
3042.636,0.727439106
3042.8205,0.759965068
3043.0665,0.806886035
3043.251,0.845024256
3043.374,0.871989113
3043.5585,0.914948939
3043.8045,0.977400831
3044.0505,1.04653394
3044.26575,1.11327604
3044.38875,1.15434192
3044.51175,1.19773789
3044.63475,1.243643
3044.75775,1.29225379
3044.88075,1.34378636
3045.01912,1.40555025
3045.14981,1.46789424
3045.28819,1.53855398
3045.41888,1.61009429
3045.55725,1.69143527
3045.69563,1.77911219
3045.834,1.87379722
3045.97238,1.97625361
3046.12612,2.10027019
3046.27988,2.23633189
3046.43362,2.38604035
3046.58738,2.55127059
3046.74113,2.73422866
3046.89487,2.93752361
3046.97175,3.04774484
3047.064,3.18835801
3047.1255,3.2875483
3047.21775,3.44519209
3047.31,3.61437962
3047.40225,3.79625431
3047.4945,3.9921031
3047.58675,4.20337841
3047.679,4.43172393
3047.77125,4.67900524
3047.8635,4.94734624
3047.95575,5.23917251
3048.048,5.55726337
3048.1095,5.78547417
3048.171,6.02783306
3048.26325,6.42049843
3048.32475,6.70363094
3048.38625,7.00558428
3048.4785,7.49750754
3048.54,7.85423281
3048.6015,8.23648985
3048.663,8.64671225
3048.7245,9.08762203
3048.77063,9.44026469
3048.83212,9.94244311
3048.89362,10.4846366
3048.95512,11.0710672
3049.01663,11.706506
3049.0935,12.5780229
3049.155,13.344611
3049.18575,13.7534478
3049.23187,14.4014023
3049.29338,15.3358773
3049.32413,15.836054
3049.37025,16.6312429
3049.401,17.1934539
3049.44712,18.0888911
3049.47788,18.7231373
3049.524,19.7351941
3049.55475,20.4533861
3049.60088,21.6015786
3049.647,22.8423624
3049.69312,24.1850473
3049.73925,25.6399836
3049.78537,27.218668
3049.8315,28.9338529
3049.87763,30.7996523
3049.92375,32.8316384
3049.96987,35.0469163
3050.016,37.4641605
3050.04675,39.1977839
3050.0775,41.0364773
3050.12363,44.0060271
3050.15438,46.136721
3050.18512,48.3963496
3050.23125,52.0427731
3050.262,54.6548874
3050.29275,57.419279
3050.3235,60.3414723
3050.36963,65.0300603
3050.4096,69.3954179
3050.4465,73.6731384
3050.4834,78.1816008
3050.5326,84.5233809
3050.5818,91.1799893
3050.7171,110.048331
3050.7663,116.508076
3050.8032,120.944982
3050.8278,123.635318
3050.8524,126.065515
3050.877,128.197535
3050.9016,129.996077
3050.9262,131.429923
3050.9508,132.473228
3050.9754,133.10664
3051.0,133.318184
3051.0246,133.10382
3051.0492,132.467632
3051.0738,131.421637
3051.0984,129.985222
3051.123,128.184268
3051.1476,126.050017
3051.1722,123.617792
3051.1968,120.925644
3051.2337,116.486437
3051.2829,110.02439
3051.4182,91.1535319
3051.4674,84.4970155
3051.5166,78.1556643
3051.5658,72.195803
3051.6027,67.9975948
3051.64575,63.4020433
3051.69187,58.8373074
3051.72262,55.9952413
3051.75338,53.3083237
3051.78413,50.7706312
3051.83025,47.2295859
3051.861,45.035861
3051.89175,42.9675553
3051.93788,40.0850869
3051.96862,38.300241
3051.99938,36.6172376
3052.0455,34.2701786
3052.09163,32.1186463
3052.13775,30.1444914
3052.18388,28.331128
3052.23,26.6634816
3052.27612,25.1279056
3052.32225,23.7120803
3052.38375,21.9915684
3052.4145,21.196391
3052.476,19.7231142
3052.50675,19.0403125
3052.56825,17.7718068
3052.599,17.1822986
3052.6605,16.0842062
3052.722,15.0838984
3052.75275,14.6169929
3052.81425,13.7436072
3052.87575,12.9435905
3052.93725,12.2092463
3052.99875,11.5338209
3053.0295,11.2163179
3053.091,10.6183576
3053.1525,10.0657573
3053.214,9.55416592
3053.2755,9.07972694
3053.337,8.63901436
3053.3985,8.22897809
3053.46,7.84689696
3053.5215,7.49033813
3053.583,7.15712211
3053.67525,6.69684063
3053.73675,6.4138465
3053.79825,6.14815971
3053.8905,5.77913934
3053.98275,5.44196465
3054.075,5.13312261
3054.16725,4.84956513
3054.2595,4.58863811
3054.3825,4.2719725
3054.444,4.12568627
3054.567,3.85461364
3054.6285,3.72891254
3054.7515,3.49515609
3054.813,3.38638257
3054.936,3.18344683
3054.9975,3.08871479
3055.15125,2.86950471
3055.305,2.67273374
3055.428,2.5294793
3055.4895,2.46211859
3055.6125,2.33520257
3055.797,2.16242558
3055.92,2.05765949
3056.1045,1.91421117
3056.2275,1.82674698
3056.3505,1.74514047
3056.4735,1.66888212
3056.5965,1.59751642
3056.7195,1.53063515
3056.8425,1.46787166
3056.9655,1.40889585
3057.0885,1.35340997
3057.2115,1.30114484
3057.3345,1.25185668
3057.4575,1.20532426
3057.5805,1.16134648
3057.7035,1.1197402
3057.888,1.06141587
3058.134,0.990507949
3058.38,0.926506248
3058.626,0.868543891
3058.749,0.84159322
3058.995,0.791345872
3059.1795,0.756575308
3059.364,0.724063401
3059.5485,0.693618955
3059.76375,0.660485775
3059.9175,0.638264158
3060.225,0.597087316
3060.37875,0.577991892
3060.68625,0.542477391
3060.99375,0.510172857
3061.1475,0.49510488
3061.455,0.466928741
3061.7625,0.441121451
3062.07,0.417424842
3062.3775,0.395614951
3062.685,0.375496721
3062.9925,0.356899647
