energy [eV],cross section [b]
1e-05,120.73763
1.0647519e-05,117.008776
1.16187974e-05,112.011356
1.25900759e-05,107.604013
1.34053072e-05,104.280776
1.42205385e-05,101.247572
1.54433855e-05,97.1563928
1.63641923e-05,94.3833415
1.73905747e-05,91.555759
1.84169571e-05,88.9679727
1.94433395e-05,86.5878989
2.1248754e-05,82.8277558
2.25409772e-05,80.4185534
2.38332005e-05,78.2080471
2.59388831e-05,74.9664568
2.83792614e-05,71.6707704
3.08196397e-05,68.7747205
3.36814023e-05,65.7881275
3.57297055e-05,63.8745548
3.88021603e-05,61.2935318
4.11157266e-05,59.544083
4.36945559e-05,57.7602318
4.62733851e-05,56.127662
4.88522144e-05,54.6261328
5.17650119e-05,53.0669857
5.50117775e-05,51.4771785
5.82585431e-05,50.0221965
6.15053088e-05,48.6840009
6.51725429e-05,47.2944548
7.13040967e-05,45.2152884
7.74356506e-05,43.3882427
8.46259504e-05,41.5040756
8.9772399e-05,40.2968502
9.74920719e-05,38.6685471
0.000106544714,36.989336
0.000113024132,35.9134303
0.00011950355,34.9262586
0.000125982967,34.0162583
0.000134140604,32.9657011
0.00014229824,32.0068303
0.000150455876,31.1270412
0.000158613512,30.316029
0.000174019301,28.9430083
0.000184289827,28.124945
0.000194560353,27.3725447
0.000212626286,26.1838702
0.000232022291,25.065561
0.000251418296,24.0792976
0.000267698108,23.3356325
0.00028397792,22.6568701
0.000308397638,21.7413566
0.00033703395,20.7972202
0.000357530357,20.1922921
0.000378026763,19.6372547
0.00039852317,19.1256069
0.000424328301,18.534931
0.000450133433,17.9958057
0.000475938564,17.5011441
0.000501743696,17.0451522
0.000550476981,16.2731709
0.000599210265,15.5973948
0.00065215098,14.9509065
0.000713506555,14.2936294
0.000774862131,13.7160539
0.000821063034,13.3245662
0.000872561124,12.9253798
0.000949808259,12.3886261
0.00100130635,12.0658397
0.00106614284,11.6931961
0.00113097932,11.3530746
0.00119581581,11.0410042
0.00126065229,10.7533295
0.00134228192,10.4212211
0.00142391155,10.1180971
0.00150554118,9.83997276
0.00163855697,9.43211803
0.00179271545,9.01745675
0.00194687393,8.6530773
0.00212765123,8.27730553
0.00232173793,7.92377786
0.00251582463,7.61199322
0.00267872905,7.37690034
0.00284163346,7.16232487
0.00308599009,6.87290569
0.00326999125,6.67673369
0.00347508915,6.47670388
0.00368018705,6.29363768
0.00388528495,6.12526543
0.00411694381,5.95043211
0.00437516362,5.77216059
0.00476249334,5.53245303
0.0051832635,5.30313398
0.00567091456,5.06998763
0.00615856562,4.86511234
0.00673042022,4.65383135
0.00713972448,4.51845894
0.00775368086,4.33586857
0.00847365015,4.14756916
0.00898896731,4.02692151
0.00950428448,3.91622391
0.0100196016,3.81417982
0.0106683899,3.69637394
0.0113171781,3.58884921
0.0119659663,3.49019221
0.0126147545,3.39924743
0.0138399985,3.24527997
0.0150652424,3.11049953
0.0163962688,2.98155982
0.0179388603,2.85046764
0.0194814517,2.7352711
0.021290405,2.61647228
0.0225851612,2.54035494
0.0245272955,2.43768741
0.0260993882,2.36311701
0.0276981645,2.29388952
0.0300963289,2.20058249
0.0316951052,2.14435135
0.0337474234,2.07811082
0.0357997416,2.01765103
0.0378520598,1.96217728
0.0411963201,1.88082736
0.0450721464,1.79811906
0.0489479727,1.72543926
0.0534930447,1.65048634
0.0583727394,1.57996952
0.0632524342,1.51777831
0.0673481493,1.4708842
0.0714438644,1.42808231
0.0775874372,1.37035051
0.0847918312,1.31081284
0.0899483676,1.27266527
0.0951049041,1.23766348
0.100261441,1.20539757
0.109999618,1.15077144
0.116491737,1.11822395
0.122983855,1.08828855
0.134403541,1.04099449
0.146663981,0.996499086
0.158924421,0.95725668
0.174360407,0.913863477
0.184651065,0.888008711
0.200087052,0.853032786
0.213043068,0.826659598
0.232477093,0.791313414
0.251911117,0.76014001
0.26822284,0.736634061
0.284534563,0.715179195
0.300846286,0.695493475
0.317158009,0.677346399
0.337694592,0.656396038
0.368499466,0.628317792
0.399304341,0.603554456
0.438087911,0.576172018
0.476871482,0.552201717
0.519003466,0.52927013
0.551556006,0.513382349
0.600384816,0.492019447
0.653429303,0.471582706
0.694413198,0.457423749
0.735397093,0.444465875
0.796872935,0.426937677
0.84847197,0.413721697
0.900071005,0.401659797
0.951670039,0.390593386
1.00326907,0.380392803
1.10071444,0.36312548
1.1981598,0.348012639
1.3040182,0.333557755
1.42670265,0.318865484
1.5493871,0.305958875
1.6932557,0.292653816
1.79622947,0.284132305
1.95069013,0.272643534
2.06699939,0.264832106
2.19664415,0.256845196
2.3911113,0.246104655
2.52075606,0.239645035
2.68397979,0.232187186
2.84720353,0.22537984
3.01042727,0.219133697
3.27640097,0.209973899
3.58465086,0.200661465
3.89290075,0.192478962
4.25437668,0.184042005
4.64246562,0.176106573
5.03055457,0.169110649
5.35629253,0.163837717
5.68203048,0.159027069
6.17063742,0.152542523
6.74361295,0.145861562
7.15371951,0.14158525
7.56382607,0.137665279
7.97393262,0.134055416
8.74842353,0.127953778
9.2647508,0.124325413
9.78107807,0.12099391
10.6893017,0.115660601
11.6643916,0.110621643
12.6394815,0.106181924
13.8671271,0.101279392
14.6855575,0.0983628486
15.9132032,0.0944243836
16.9436133,0.0914612421
18.4892284,0.087501269
20.0348436,0.0840206776
21.3321377,0.0813468745
22.6294318,0.078910492
23.926726,0.0766792645
25.2240201,0.0746267763
26.8573233,0.0722634459
29.3072781,0.0691088764
31.7572328,0.0663085654
34.8417444,0.0632114556
37.9262561,0.0605157065
41.2770717,0.0579321809
43.8660207,0.0561252301
47.7494443,0.0537074271
51.9681466,0.0514099502
55.2276531,0.0498289333
58.4871596,0.0483910213
63.3764193,0.0464280107
67.4801627,0.0449462186
71.5839061,0.0436021768
75.6876495,0.0423769315
79.791393,0.0412549521
87.5413591,0.0393286766
95.2913253,0.0376572579
103.710391,0.0360614358
113.467658,0.0344363489
123.224924,0.033020619
134.666994,0.0315734718
142.856642,0.0306534004
155.141115,0.0294153105
164.391353,0.0285751695
174.702182,0.0277223856
185.013012,0.0269451477
195.323841,0.0262327799
206.969962,0.0254980747
219.951374,0.0247531741
232.932786,0.0240731085
245.914198,0.0234486185
260.576753,0.0228006761
276.920449,0.0221399078
293.264146,0.02153445
317.779691,0.0207325559
348.644948,0.0198525454
379.510205,0.0190787788
400.087043,0.0186109836
438.946635,0.0178474364
464.853031,0.0173898941
500.0,0.0168237879
536.328972,0.016313479
568.94532,0.0158953854
600.0,0.015527071
634.178017,0.0151667871
707.529426,0.0144806647
789.657886,0.0138479212
882.653668,0.0132574668
984.426501,0.0127072546
1035.31292,0.0124850119
1106.5539,0.0122157078
1198.14945,0.011912454
1250.0536,0.0117864473
1259.72201,0.0117881595
1267.35498,0.0118221832
1272.95248,0.0119045989
1274.98794,0.0119652048
1276.51453,0.0120320594
1278.54999,0.0121702671
1280.07658,0.0123386816
1281.09431,0.0125051309
1281.60317,0.0126131189
1282.11204,0.0127436966
1282.6209,0.012903532
1283.12977,0.0131019468
1283.63863,0.0133522911
1284.02028,0.0135856216
1284.40193,0.0138708268
1284.78357,0.0142244042
1285.03801,0.014509367
1285.29244,0.0148444946
1285.41965,0.0150346179
1285.67409,0.0154695669
1285.86491,0.0158532357
1285.99213,0.0161420221
1286.23384,0.0167792229
1286.36105,0.0171704164
1286.48827,0.0176080249
1286.64093,0.0182052598
1286.7427,0.0186545863
1286.89536,0.0194201074
1286.99713,0.0200021012
1287.09891,0.0206517571
1287.20068,0.0213799403
1287.30245,0.0221997787
1287.35334,0.0226489311
1287.45511,0.0236373083
1287.55688,0.0247643898
1287.65866,0.026057244
1287.70954,0.0267761261
1287.76043,0.0275498388
1287.81132,0.0283840674
1287.8622,0.0292852488
1287.91309,0.030260693
1287.96398,0.0313187279
1288.01486,0.0324688733
1288.06575,0.0337220493
1288.11663,0.0350908291
1288.16752,0.0365897454
1288.21841,0.0382356646
1288.26929,0.0400482462
1288.32018,0.04205051
1288.37107,0.0442695396
1288.42195,0.0467373628
1288.4474,0.0480761989
1288.48556,0.0502307021
1288.53645,0.053409045
1288.58733,0.0569899403
1288.61278,0.0589525407
1288.63822,0.0610429974
1288.66366,0.0632724375
1288.70183,0.0669045471
1288.72727,0.0695384576
1288.75271,0.0723609128
1288.77816,0.0753898854
1288.81632,0.0803651949
1288.84177,0.08400382
1288.86721,0.0879307282
1288.89265,0.0921761733
1288.93082,0.0992175578
1288.95626,0.104418886
1288.96898,0.107188662
1288.99443,0.113098624
1289.01987,0.119550603
1289.03259,0.122999792
1289.05803,0.13038942
1289.08348,0.138501443
1289.0962,0.142856372
1289.12164,0.152227344
1289.13436,0.157271491
1289.15981,0.168155239
1289.17253,0.174029579
1289.19797,0.186739816
1289.21705,0.197199213
1289.23614,0.20854329
1289.25522,0.22086306
1289.2743,0.234259341
1289.29338,0.248843498
1289.31247,0.264738062
1289.33155,0.282077112
1289.34427,0.294510419
1289.35699,0.307696101
1289.37607,0.32899056
1289.3888,0.34427033
1289.40152,0.360476642
1289.4206,0.386636369
1289.43332,0.405383735
1289.44604,0.425233483
1289.45876,0.446229361
1289.47785,0.479951426
1289.49566,0.513900979
1289.51092,0.544914987
1289.53128,0.588942743
1289.55163,0.63578814
1289.57199,0.684960963
1289.62796,0.824356618
1289.64832,0.872087059
1289.66358,0.904874468
1289.67376,0.924757295
1289.68394,0.942719503
1289.69411,0.958480049
1289.70429,0.971778062
1289.71447,0.982382822
1289.72465,0.990103252
1289.73482,0.994796242
1289.745,0.996373143
1289.75518,0.994803907
1289.76535,0.99011851
1289.77553,0.982405527
1289.78571,0.971808003
1289.79589,0.958516955
1289.80606,0.94276305
1289.81624,0.924807115
1289.82642,0.904930158
1289.84168,0.87215075
1289.86204,0.824429413
1289.91801,0.685049986
1289.94855,0.612130751
1289.9689,0.566650932
1289.98925,0.524138879
1290.01215,0.480046636
1290.03124,0.44632392
1290.05032,0.415261495
1290.0694,0.386728609
1290.08848,0.360567367
1290.1012,0.344359956
1290.11393,0.329079032
1290.12665,0.314673252
1290.14573,0.294595842
1290.15845,0.282161275
1290.17117,0.270433181
1290.1839,0.259367848
1290.20298,0.243922491
1290.2157,0.234337761
1290.22842,0.225280755
1290.24114,0.216717949
1290.25386,0.208617953
1290.26659,0.200951411
1290.29203,0.186810858
1290.31747,0.174098298
1290.34292,0.162641683
1290.36836,0.152291662
1290.38108,0.147490423
1290.40652,0.138562677
1290.43197,0.130448699
1290.45741,0.123057194
1290.47013,0.119607096
1290.49557,0.113153353
1290.52102,0.107241699
1290.54646,0.101815273
1290.55918,0.099268182
1290.59735,0.0922245274
1290.63551,0.0859756488
1290.67368,0.080409393
1290.71184,0.075432178
1290.75001,0.0709655306
1290.78817,0.0669433295
1290.82634,0.0633095995
1290.8645,0.0600167406
1290.90267,0.0570240974
1290.94083,0.054296801
1290.96627,0.0526110152
1291.00444,0.0502612741
1291.0426,0.0481055337
1291.06805,0.0467659019
1291.11893,0.0442965522
1291.14438,0.0431573346
1291.19526,0.04104895
1291.22071,0.0400724382
1291.27159,0.038258549
1291.32248,0.0366113829
1291.34792,0.0358440608
1291.39881,0.0344110003
1291.44969,0.0331005922
1291.52602,0.0313358904
1291.57691,0.0302768453
1291.65324,0.0288405598
1291.72957,0.0275631721
1291.8059,0.0264221878
1291.85679,0.0257279587
1291.93312,0.0247743716
1291.984,0.0241911639
1292.08578,0.0231349621
1292.18755,0.0222060705
1292.23843,0.0217830861
1292.34021,0.0210095556
1292.44198,0.0203208557
1292.59464,0.0194213127
1292.7473,0.0186540757
1292.89996,0.0179944537
1293.05262,0.0174232477
1293.20528,0.0169253497
1293.37066,0.0164548065
1293.56148,0.0159855169
1293.6887,0.0157095234
1293.94313,0.0152304215
1294.07035,0.015021745
1294.32478,0.0146550363
1294.70643,0.0142065178
1294.96086,0.0139603058
1295.21529,0.0137474379
1295.59694,0.0134783633
1296.1058,0.0131916801
1296.61467,0.0129658721
1297.37796,0.0127073775
1297.88683,0.0125735454
1298.90455,0.0123689119
1300.43115,0.0121629863
1302.4666,0.0119928112
1305.01092,0.0118652102
1308.06411,0.0117730259
1313.15275,0.0116852599
1325.36549,0.0115858502
1349.79097,0.0114885957
1466.26998,0.0111908564
1645.94992,0.0108257002
1781.38944,0.0106028861
1899.34208,0.0104510024
1995.65041,0.0103798523
2048.61115,0.0104092021
2070.84522,0.0104457233
2090.66126,0.0104993754
2108.35416,0.0105737148
2124.10084,0.010672978
2135.24736,0.0107720501
2147.04262,0.0109161873
2158.83789,0.011121729
2164.26371,0.0112462762
2171.69473,0.0114604459
2176.53078,0.0116355358
2180.54117,0.0118086778
2183.60794,0.0119621828
2188.444,0.0122508154
2191.86463,0.0124981207
2194.22368,0.0126946404
2196.58273,0.0129165108
2198.94179,0.0131682393
2201.30084,0.0134553812
2203.65989,0.013784846
2206.01894,0.0141653137
2207.19847,0.0143780073
2209.55752,0.014856594
2211.91658,0.0154199847
2213.68587,0.0159106834
2215.45516,0.0164722759
2217.077,0.0170614913
2218.40397,0.0176063065
2219.73094,0.0182173955
2221.05791,0.0189059315
2222.38487,0.0196855445
2223.71184,0.020573
2224.89137,0.0214690933
2226.07089,0.0224848146
2227.25042,0.0236424093
2228.42995,0.0249695432
2229.01971,0.0257072131
2229.60947,0.026500968
2230.19924,0.0273566344
2230.789,0.0282808154
2231.37876,0.0292810183
2231.96852,0.0303658072
2232.55829,0.0315449869
2233.14805,0.0328298244
2233.73781,0.0342333193
2234.32758,0.0357705332
2234.91734,0.0374589946
2235.5071,0.0393192009
2235.80199,0.040321076
2236.39175,0.0424853996
2236.68663,0.0436555832
2237.27639,0.0461940552
2237.57128,0.0475724326
2238.16104,0.0505764569
2238.60336,0.0530724675
2239.04568,0.055806144
2239.48801,0.058808628
2239.93033,0.0621163326
2240.37265,0.0657720501
2240.66753,0.0684271342
2240.96241,0.0712764146
2241.40474,0.07595756
2241.84706,0.0811962454
2242.28938,0.0870846057
2242.58426,0.0914254391
2242.87914,0.0961434014
2243.02658,0.0986576007
2243.32147,0.104027667
2243.46891,0.106897459
2243.76379,0.113045494
2243.91123,0.116341183
2244.20611,0.123424935
2244.35355,0.127235087
2244.64843,0.135454383
2244.79587,0.139891823
2245.09076,0.149502789
2245.38564,0.160220503
2245.53308,0.166048235
2245.68052,0.17222153
2245.90168,0.1821911
2246.04912,0.189356506
2246.19656,0.196978275
2246.344,0.205095968
2246.49144,0.213753527
2246.63888,0.222999865
2246.78633,0.232889558
2247.00749,0.249065924
2247.15493,0.260847587
2247.30237,0.273521151
2247.52353,0.294408917
2247.67097,0.309743149
2247.81841,0.326350168
2247.96585,0.344374657
2248.11329,0.36398243
2248.26073,0.385364249
2248.40817,0.408740451
2248.55561,0.434366626
2248.70306,0.462540591
2248.8505,0.493611041
2248.92422,0.510357923
2249.07166,0.546565371
2249.13063,0.562154682
2249.23384,0.591115997
2249.32231,0.617788776
2249.39603,0.641441131
2249.48449,0.671687958
2249.54347,0.693073226
2249.60244,0.715509617
2249.7204,0.7638211
2249.77937,0.789854178
2249.89733,0.84612281
2249.98579,0.892406569
2250.07426,0.942629708
2250.16272,0.997250779
2250.2217,1.0363652
2250.28067,1.07784241
2250.36914,1.14491715
2250.42811,1.1931926
2250.48709,1.24460186
2250.57555,1.32820385
2250.63453,1.38872415
2250.69351,1.45348919
2250.78197,1.55949346
2250.84095,1.63674881
2250.89992,1.71989516
2250.9589,1.80954331
2251.01788,1.90638482
2251.07685,2.01120505
2251.13583,2.12489873
2251.19481,2.24848863
2251.25378,2.38314799
2251.31276,2.5302276
2251.34225,2.60890366
2251.40122,2.77761773
2251.4602,2.96314051
2251.48969,3.06290438
2251.54866,3.27804399
2251.60764,3.5164723
2251.63713,3.6454712
2251.68136,3.85255931
2251.71085,4.00047239
2251.75508,4.23864779
2251.79931,4.49846562
2251.84354,4.78258413
2251.87303,4.98699428
2251.91727,5.31867749
2251.9615,5.68398765
2252.00573,6.08752542
2252.04996,6.53468515
2252.09419,7.03181978
2252.13843,7.58644547
2252.15317,7.78559412
2252.18266,8.20749671
2252.1974,8.43106236
2252.22689,8.90564579
2252.25638,9.42013486
2252.28587,9.97895432
2252.30061,10.2765325
2252.3301,10.9114835
2252.35959,11.6046658
2252.38908,12.3630554
2252.41856,13.1946353
2252.44805,14.108559
2252.47754,15.1153401
2252.50703,16.2270719
2252.53652,17.4576802
2252.55126,18.1224858
2252.57338,19.1877817
2252.58812,19.9469179
2252.60286,20.7482758
2252.61761,21.5947012
2252.63972,22.9555673
2252.65447,23.928468
2252.67659,25.4953101
2252.69133,26.6172192
2252.71345,28.4266198
2252.72819,29.7238281
2252.75031,31.818087
2252.77242,34.1058292
2252.79454,36.6051479
2252.81665,39.334679
2252.8314,41.2914606
2252.84614,43.3641382
2252.86826,46.7011447
2252.883,49.0839219
2252.89775,51.5968662
2252.91102,53.9712447
2252.92871,57.3031254
2252.9523,62.0330715
2252.96409,64.51415
2252.98769,69.6802458
2253.07025,88.6400443
2253.09384,93.6618961
2253.11154,97.0645232
2253.12333,99.101032
2253.13513,100.915889
2253.14692,102.479852
2253.15872,103.766386
2253.17051,104.752715
2253.18231,105.420792
2253.2,105.800459
2253.21769,105.421168
2253.22949,104.753343
2253.24128,103.767266
2253.25308,102.480985
2253.26487,100.917276
2253.27667,99.1026735
2253.28846,97.0664181
2253.30616,93.6641676
2253.32975,88.6428036
2253.40052,72.352327
2253.43591,64.5186395
2253.4595,59.6327998
2253.47129,57.307967
2253.49488,52.9077592
2253.50963,50.3290821
2253.52437,47.8815955
2253.54649,44.4507527
2253.5686,41.2967567
2253.59072,38.4034193
2253.61283,35.7527102
2253.62758,34.1111425
2253.64969,31.8233749
2253.66444,30.4067619
2253.68655,28.4318381
2253.7013,27.2081152
2253.71604,26.053334
2253.73079,24.9631652
2253.7529,23.4401974
2253.76765,22.4942315
2253.78239,21.5996417
2253.79714,20.7531666
2253.81925,19.5670571
2253.834,18.8279733
2253.86348,17.4623392
2253.89297,16.2316262
2253.92246,15.1197904
2253.95195,14.1129066
2253.96669,13.6449782
2253.99618,12.773351
2254.02567,11.9793356
2254.05516,11.2543862
2254.0699,10.9154416
2254.09939,10.2803998
2254.11413,9.98277725
2254.14362,9.42387118
2254.15837,9.16133273
2254.18785,8.66723295
2254.2026,8.43463392
2254.23209,7.99597333
2254.24683,7.78904936
2254.29106,7.2132427
2254.33529,6.69773907
2254.37953,6.23458045
2254.40901,5.95152789
2254.45325,5.56119885
2254.48273,5.3216061
2254.52697,4.98983951
2254.55646,4.7853761
2254.60069,4.501181
2254.63018,4.3253919
2254.67441,4.0802045
2254.7039,3.92803271
2254.73338,3.78413732
2254.76287,3.64793598
2254.82185,3.39652971
2254.88083,3.17006423
2254.9398,2.96537701
2254.99878,2.77978677
2255.05775,2.611009
2255.11673,2.45708814
2255.17571,2.31634279
2255.23468,2.18732115
2255.29366,2.06876472
2255.32315,2.01306306
2255.38212,1.90819528
2255.4411,1.81130851
2255.52956,1.67925047
2255.58854,1.59908119
2255.64752,1.52452607
2255.73598,1.42212013
2255.82445,1.3297211
2255.91291,1.24607122
2256.00138,1.17010363
2256.06035,1.12327168
2256.14882,1.05815179
2256.23728,0.998567229
2256.32574,0.943909706
2256.38472,0.909945322
2256.50267,0.847335519
2256.56165,0.818447426
2256.6796,0.764973098
2256.79756,0.716624339
2256.85653,0.694170181
2256.91551,0.67276769
2257.00397,0.642495997
2257.12193,0.60525184
2257.26937,0.563141242
2257.40206,0.528943868
2257.5495,0.494534291
2257.69694,0.463433605
2257.84439,0.435231274
2257.99183,0.409578436
2258.06555,0.397613223
2258.21299,0.375239427
2258.28671,0.364771616
2258.43415,0.345141458
2258.50787,0.335931466
2258.65531,0.318614415
2258.72903,0.310468683
2258.95019,0.287876172
2259.17135,0.267738491
2259.39251,0.249712677
2259.61367,0.233513595
2259.76112,0.22360959
2259.98228,0.20994373
2260.12972,0.201549046
2260.35088,0.189914759
2260.49832,0.182737755
2260.71948,0.172751621
2260.86692,0.166567802
2261.1618,0.155212689
2261.45668,0.145049914
2261.60413,0.140364172
2261.89901,0.131696031
2262.19389,0.123864941
2262.34133,0.120230017
2262.56249,0.115095697
2262.93109,0.107302394
2263.22597,0.101675759
2263.52086,0.0965237744
2263.81574,0.091794519
2264.11062,0.0874429802
2264.4055,0.0834299805
2264.70038,0.0797212921
2264.99526,0.0762869059
2265.29015,0.073100422
2265.58503,0.0701385416
2265.87991,0.0673806398
2266.17479,0.0648084057
2266.61711,0.0612630067
2266.91199,0.0590873904
2267.20688,0.0570475705
2267.50176,0.0551324744
2267.79664,0.0533321353
2268.23896,0.0508273678
2268.82872,0.0478123869
2269.41849,0.0451199344
2270.00825,0.0427055832
2270.59801,0.0405323005
2270.8929,0.0395261505
2271.48266,0.0376577705
2272.07242,0.035961598
2272.95707,0.0336961259
2273.84171,0.0317152975
2274.72636,0.0299733287
2275.611,0.0284332842
2276.49565,0.0270651019
2277.38029,0.0258441136
2277.97005,0.0251016753
2278.55982,0.024410351
2279.14958,0.0237655503
2280.32911,0.022599613
2281.50863,0.0215761166
2282.68816,0.0206727475
2283.5728,0.0200630297
2284.45745,0.0195042387
2285.34209,0.0189908496
