energy [eV],cross section [b]
1e-05,818.581601
1.0647646e-05,793.295841
1.16191151e-05,759.408501
1.25905841e-05,729.523091
1.34060083e-05,706.988324
1.42214324e-05,686.420606
1.50368566e-05,667.54947
1.58522808e-05,650.153803
1.68789475e-05,630.070732
1.79056141e-05,611.740702
1.89322808e-05,594.922673
2.06052641e-05,570.259985
2.25442141e-05,545.185685
2.38368473e-05,530.197392
2.51294806e-05,516.380983
2.67569815e-05,500.430118
2.91982327e-05,479.05317
3.16394839e-05,460.200735
3.36886025e-05,445.985263
3.57377211e-05,433.010653
3.8811399e-05,415.510845
4.11259384e-05,403.649209
4.37058984e-05,391.554296
4.62858584e-05,380.485281
4.88658184e-05,370.304881
5.34041187e-05,354.221285
5.66524391e-05,343.916275
5.99007594e-05,334.4613
6.51939923e-05,320.596116
7.13287299e-05,306.499526
7.74634674e-05,294.112575
8.46577086e-05,281.338271
8.98070372e-05,273.153576
9.75310301e-05,262.114278
0.000103347347,254.631674
0.000109830653,247.001914
0.000116313958,240.019314
0.000122797264,233.597275
0.000130120347,226.928749
0.000138283207,220.129078
0.000146446067,213.906159
0.000154608928,208.182813
0.000163829117,202.239798
0.000179245394,193.347333
0.000194661671,185.533349
0.000212740425,177.475014
0.00022568042,172.311913
0.000245090413,165.348062
0.000267852621,158.166444
0.000284144831,153.565069
0.000308583146,147.358859
0.000326985673,143.152195
0.000347498517,138.862802
0.000368011361,134.937237
0.000388524205,131.326816
0.000411694062,127.577822
0.000450434365,121.968245
0.000476261234,118.615092
0.000502088103,115.524111
0.000550864407,110.291059
0.000599640712,105.710267
0.000652628987,101.328033
0.000714041203,96.8726623
0.00077545342,92.9576409
0.000847471871,88.9201933
0.000899019582,86.3333384
0.000950567294,83.9598673
0.00100211501,81.7719702
0.00106701659,79.2460717
0.00113191817,76.9406582
0.00119681975,74.8254131
0.00126172133,72.8755522
0.00138429365,69.5744251
0.00150686597,66.6847591
0.00164002275,63.9203487
0.00179434846,61.1098023
0.00194867417,58.6401211
0.0021296528,56.0932116
0.00225918952,54.4613679
0.0024534946,52.2603817
0.00259981011,50.7685205
0.00276290441,49.2473203
0.00292599871,47.85515
0.00308909301,46.5747431
0.00327331279,45.2451933
0.00347865804,43.8894967
0.00368400329,42.648792
0.00388934854,41.5076911
0.00425056283,39.7049142
0.00463837532,38.0088777
0.00502618782,36.5131367
0.0055144664,34.8591982
0.00600274499,33.4114126
0.00653318779,32.0263844
0.0069430353,31.0667868
0.00735288281,30.188584
0.00796765406,29.0006106
0.00848367601,28.1048338
0.00899969796,27.2872504
0.00951571991,26.5371086
0.0100317419,25.8456189
0.0110062945,24.674925
0.0116559963,23.9774266
0.0123056981,23.3359243
0.0134485614,22.3224441
0.0146755802,21.3689735
0.0159025989,20.5281064
0.0174474871,19.5983078
0.0184774126,19.0443355
0.0200223009,18.2949613
0.0213190372,17.7299065
0.0232641417,16.9726383
0.0245608781,16.5185793
0.0261049892,16.0226734
0.0277149676,15.5504066
0.029324946,15.1175889
0.0309349243,14.7190175
0.032767725,14.3015374
0.0358511593,13.6728336
0.0389345936,13.1203852
0.0425505544,12.550668
0.0464327783,12.0146899
0.0503150022,11.5420149
0.0535736333,11.1856043
0.05846158,10.7079591
0.0633495267,10.2867295
0.0674523336,9.96911156
0.0715551405,9.6792231
0.0777093508,9.28823738
0.0823435911,9.02322726
0.0875092646,8.7530109
0.0926749382,8.50571996
0.0978406117,8.27828654
0.106927333,7.91898512
0.11668316,7.58097174
0.126438987,7.28288981
0.138722144,6.95329835
0.1510053,6.66480578
0.164349141,6.38883656
0.174659281,6.19764709
0.184969422,6.02268447
0.200434633,5.78602387
0.213415702,5.60758761
0.232887306,5.36847556
0.245868376,5.22511778
0.260530873,5.07627134
0.28504676,4.85358374
0.301390684,4.72049062
0.317734609,4.59781844
0.348601542,4.39017102
0.379468475,4.20845068
0.413000855,4.03465498
0.451864127,3.85801648
0.490727399,3.70285873
0.5199922,3.59772692
0.552612953,3.49056272
0.601544083,3.34653563
0.6384725,3.24903487
0.678467017,3.15259792
0.718461535,3.06437567
0.778453311,2.94509928
0.824306237,2.86291722
0.87601757,2.77815365
0.953584571,2.66429833
1.0378497,2.55552857
1.13551108,2.44512806
1.23317247,2.34830486
1.34770052,2.24868012
1.47066191,2.15521142
1.5936233,2.07303506
1.66725087,2.02836073
1.81450602,1.94756705
1.94729921,1.88299129
2.07143876,1.82856064
2.20138666,1.77682191
2.33133455,1.72970172
2.46128245,1.68658814
2.60269869,1.64363599
2.75558326,1.60125402
2.90846784,1.56254469
3.1377947,1.51038971
3.28370289,1.48040579
3.59269847,1.42382619
3.90169405,1.37512689
4.29176499,1.32272988
4.71479884,1.27513966
5.04214187,1.24371433
5.48837314,1.20716262
5.81492546,1.18434313
6.17054257,1.16275362
6.61756456,1.13984246
6.886778,1.12807044
7.43986144,1.10812097
7.99294488,1.09325646
8.44885437,1.08442149
8.76126965,1.08001409
9.3861002,1.0749541
10.0635845,1.07479737
10.6357613,1.07878494
11.2605919,1.08735105
11.5730071,1.09327908
12.1978377,1.10846787
12.9028621,1.13110198
13.759914,1.16695822
14.3847446,1.19936751
15.0095751,1.23761316
15.3219904,1.25911746
15.7937412,1.29486225
16.2592363,1.33431952
16.5716515,1.36334169
17.1964821,1.42817267
17.8213126,1.50323408
18.1337279,1.54512495
18.4461432,1.59025314
18.7585584,1.63890481
19.0709737,1.69140205
19.383389,1.74810816
19.6958043,1.809434
20.0082195,1.87584543
20.3594527,1.95724279
20.6330501,2.02611861
20.9454654,2.11127631
21.2578806,2.20413974
21.5702959,2.30562487
21.7265036,2.35992559
22.0389188,2.47638425
22.3513341,2.60444979
22.6637494,2.74568178
22.819957,2.82179647
23.1323723,2.98632232
23.4447876,3.16925837
23.7572028,3.37343298
24.0696181,3.60224591
24.2258258,3.72714514
24.3820334,3.85981285
24.538241,4.00090633
24.6944487,4.1511544
24.8506563,4.31136694
25.0068639,4.48244603
25.1480645,4.64727669
25.2892651,4.82263545
25.397383,4.96459426
25.5535907,5.18247
25.7097983,5.41681386
25.866006,5.66933424
26.0222136,5.94196791
26.1784212,6.23691767
26.3346289,6.55669747
26.4908365,6.90418669
26.6470441,7.28269579
26.8032518,7.69604624
26.9594594,8.14866811
27.0375632,8.39128566
27.1937709,8.91275497
27.3499785,9.48809439
27.4280823,9.79832364
27.5374277,10.2605696
27.6311523,10.6849898
27.7248768,11.1379194
27.8810845,11.9634117
27.9435675,12.3209271
28.0685336,13.0884056
28.1310167,13.5006858
28.2559828,14.3888675
28.3184659,14.8677267
28.443432,15.9033798
28.5683981,17.055985
28.6621227,18.0080792
28.7558472,19.0452557
28.8495718,20.1779712
28.9432964,21.4183359
29.0057795,22.3119146
29.0682625,23.2642911
29.1619871,24.8147956
29.2244702,25.9385696
29.2869532,27.1424149
29.3494363,28.434111
29.4119193,29.8224017
29.4744024,31.3171413
29.5368854,32.9294675
29.5993685,34.6720056
29.6618515,36.5591125
29.7243346,38.6071671
29.7711969,40.2600088
29.8493007,43.2639114
29.9117838,45.9189864
29.9742668,48.8289097
30.0367499,52.0271278
30.0992329,55.5527022
30.161716,59.4514664
30.224199,63.7774654
30.2710613,67.3404364
30.3179236,71.2109486
30.3491652,73.979702
30.3960274,78.4453223
30.427269,81.6503178
30.4741313,86.8375527
30.5053728,90.5738296
30.5522351,96.6439364
30.5990974,103.339913
30.6459597,110.748962
30.692822,118.973605
30.7396842,128.134914
30.7865465,138.376546
30.8021673,142.059189
30.8334088,149.869772
30.8490296,154.013327
30.8802711,162.819796
30.8958919,167.501524
30.9271334,177.473713
30.9505646,185.530725
30.9818061,197.125887
31.0130476,209.801387
31.0442891,223.688501
31.0677203,234.98864
31.0989618,251.371268
31.1302033,269.434803
31.1614449,289.399774
31.1926864,311.520142
31.2083072,323.478356
31.2317383,342.651398
31.2473591,356.321839
31.2629798,370.758886
31.2786006,386.014265
31.3020317,410.553791
31.3176525,428.105434
31.3332733,446.685992
31.348894,466.364664
31.3723252,498.103243
31.3879459,520.857174
31.4113771,557.588934
31.4348082,597.706298
31.4582394,641.518958
31.4816705,689.342441
31.4972913,723.606496
31.5129121,759.877703
31.5363432,818.217105
31.551964,859.823513
31.5675847,903.649727
31.5925779,978.409306
31.6238195,1079.63607
31.655061,1188.51124
31.7425373,1509.71257
31.7675305,1594.58165
31.7862754,1651.9951
31.798772,1686.30422
31.8112686,1716.82792
31.8237653,1743.07126
31.8362619,1764.58576
31.8550068,1787.17231
31.8675034,1795.36442
31.8793752,1797.87624
31.8987449,1790.86194
31.9112415,1779.14888
31.9237381,1762.03745
31.9362347,1739.83754
31.9487314,1712.93891
31.961228,1681.79482
31.9737246,1646.90401
31.9924695,1588.69643
32.0174627,1502.92216
32.0924424,1225.26856
32.1299322,1091.97207
32.1549254,1008.89208
32.1674221,969.374342
32.1924153,894.603634
32.208036,850.800076
32.2236568,809.235076
32.2470879,750.986618
32.2627087,714.791594
32.2783295,680.613637
32.3017606,632.933905
32.3251918,589.277956
32.3486229,549.326076
32.3720541,512.765261
32.3876748,490.127015
32.411106,458.562987
32.4267267,439.000631
32.4423475,420.535867
32.4579683,403.099163
32.4813994,378.729854
32.4970202,363.586178
32.5126409,349.259219
32.5282617,335.697119
32.5516928,316.683104
32.5673136,304.828481
32.5985551,282.909266
32.6297967,263.137277
32.6610382,245.258547
32.6922797,229.052669
32.7079005,221.516206
32.739142,207.468579
32.7703835,194.660837
32.8016251,182.957496
32.8172458,177.482386
32.8484874,167.218406
32.8641081,162.405307
32.8953496,153.361924
32.9109704,149.111679
32.9422119,141.108682
32.9578327,137.339401
32.9890742,130.227588
33.004695,126.871299
33.0515573,117.526511
33.0984196,109.153663
33.1452819,101.625448
33.1765234,97.0220492
33.2233857,90.6706353
33.2546272,86.770062
33.3014895,81.3664537
33.332731,78.0348638
33.3795933,73.4023086
33.4108348,70.535799
33.4576971,66.5363306
33.4889387,64.0533618
33.535801,60.5781567
33.5670425,58.4140902
33.6295255,54.4157864
33.6920086,50.8098835
33.7544916,47.5472341
33.8169747,44.5860777
33.8794578,41.8907589
33.9419408,39.4306967
34.0044239,37.1795485
34.0669069,35.1145297
34.12939,33.2158563
34.1606315,32.3234227
34.2231146,30.6426275
34.2855976,29.0890265
34.3793222,26.9703727
34.4730468,25.0744193
34.5667714,23.3712494
34.6604959,21.8357799
34.7542205,20.4468584
34.8479451,19.1865496
34.9104282,18.4101521
35.0041527,17.3313297
35.0978773,16.3450528
35.1916019,15.4411103
35.254085,14.8798055
35.3790511,13.8459967
35.4415341,13.3694237
35.5665002,12.4880275
35.6914664,11.6920742
35.7539494,11.3227579
35.8789155,10.635588
35.9882609,10.0852784
36.1288477,9.43956976
36.2538139,8.91745373
36.4100215,8.32507508
36.5662291,7.79148359
36.7224368,7.3092335
36.8786444,6.87201873
36.9567482,6.66858982
37.1129559,6.28910879
37.1910597,6.11199428
37.3472673,5.78064197
37.4253711,5.62555317
37.5815788,5.33463859
37.6596826,5.1981248
37.8158902,4.94143196
37.893994,4.82069189
38.1283055,4.48589445
38.362617,4.18767821
38.5969284,3.92102688
38.753136,3.75869999
38.9874475,3.53569632
39.1436551,3.39933245
39.3779666,3.21122471
39.5341742,3.09574908
39.7684857,2.93588217
39.9246933,2.83740797
40.0892532,2.74005844
40.3152124,2.61616204
40.6276277,2.46154343
40.7838353,2.39075696
41.0962506,2.26079632
41.4086659,2.14468135
41.5648735,2.09127652
41.799185,2.01645635
42.1897041,1.9044977
42.5021194,1.82512331
42.8145346,1.75375961
42.9707423,1.72082016
43.2831575,1.65996778
43.5955728,1.60528105
43.9079881,1.55619368
44.2204034,1.51221632
44.5328186,1.47292575
44.8452339,1.43795601
45.3138568,1.39292356
45.6262721,1.36746712
45.9386874,1.34540548
46.2511026,1.3265551
46.7197256,1.30397087
47.1883485,1.2878622
47.6603819,1.27789109
48.2264191,1.27396631
48.7019369,1.27736663
49.0189487,1.28305353
49.3359606,1.29152504
49.8114784,1.30960738
50.2869962,1.33444353
50.7771186,1.36760667
51.0795258,1.39218696
51.3965377,1.42158531
51.8720554,1.47324803
52.3475732,1.53499887
52.823091,1.60824553
53.2986088,1.6947625
53.4571147,1.72692213
53.7741266,1.79679202
53.9326325,1.83472052
54.2496443,1.91718167
54.4081503,1.96199376
54.7251621,2.05957472
55.042174,2.16899702
55.2006799,2.2286766
55.5176918,2.3592105
55.6761977,2.43063418
55.9139566,2.54637939
56.1517155,2.67358563
56.3894744,2.81371421
56.5479803,2.91514435
56.7857392,3.08075167
57.0234981,3.26453212
57.261257,3.46914231
57.4990159,3.6977499
57.7367748,3.95415589
57.9745336,4.24295255
58.0537866,4.34734857
58.2122925,4.56972919
58.2915455,4.6882371
58.4500514,4.94134326
58.5293044,5.07658985
58.6878103,5.36628134
58.7670633,5.52153714
58.9255692,5.85514601
59.0048222,6.03452393
59.1633281,6.42132103
59.2425811,6.63005037
59.3852364,7.03450765
59.5437423,7.53247887
59.6705471,7.972822
59.7656506,8.33066877
59.829053,8.58363784
59.9558577,9.12759795
60.0826625,9.72808215
60.2094672,10.3931767
60.336272,11.1324654
60.3996743,11.5334201
60.4947779,12.178529
60.5581803,12.6403908
60.6215826,13.1300614
60.684985,13.6498122
60.7800886,14.4913959
60.8434909,15.0979091
60.9385945,16.0839718
61.0019969,16.7976083
61.0971004,17.9630706
61.1605028,18.8105054
61.2556063,20.2014572
61.3507099,21.7561143
61.3824111,22.3151598
61.4458135,23.5010685
61.4775146,24.1303837
61.540917,25.4685024
61.62017,27.3060318
61.6994229,29.3525086
61.7311241,30.2367167
61.7945265,32.1305333
61.8262277,33.1454376
61.8896301,35.326089
61.9213312,36.4985092
61.9847336,39.0263489
62.048136,41.8271315
62.0956878,44.1307906
62.1273889,45.7739825
62.1590901,47.5106288
62.1907913,49.3478566
62.2224925,51.293475
62.2700443,54.4341105
62.3017455,56.6900824
62.3334467,59.0883791
62.3651478,61.6410163
62.396849,64.3612788
62.4285502,67.2638809
62.4602514,70.3651507
62.4919526,73.6832407
62.5236538,77.238372
62.555355,81.0531137
62.5870561,85.1527081
62.6187573,89.5654457
62.6504585,94.3231009
62.6821597,99.4614386
62.6980103,102.185774
62.7297115,107.9724
62.7614127,114.250695
62.8010391,122.874565
62.8406656,132.477695
62.8565162,136.625136
62.8802921,143.206684
62.8961427,147.851318
62.9199186,155.234808
62.9436945,163.159204
62.9674704,171.675327
62.983321,177.709096
63.0070968,187.339894
63.0308727,197.727183
63.0546486,208.945773
63.0784245,221.078854
63.1022004,234.218914
63.1259763,248.468707
63.1497522,263.942256
63.1735281,280.765847
63.1893787,292.799902
63.2052293,305.540419
63.2290051,326.080671
63.2448557,340.801771
63.2607063,356.408364
63.2844822,381.60483
63.3003328,399.68167
63.3161834,418.854986
63.332034,439.188953
63.3478846,460.748159
63.3637352,483.596461
63.3795858,507.795472
63.3954364,533.402623
63.4192123,574.562154
63.4429881,619.128504
63.4683491,670.471367
63.4873698,711.506551
63.5127308,769.363704
63.5444319,845.927361
63.6141745,1020.39349
63.6395355,1080.07021
63.6585562,1121.03315
63.6712367,1145.85584
63.6839172,1168.2637
63.6965976,1187.90503
63.7092781,1204.45359
63.7219586,1217.6211
63.7346391,1227.16913
63.7473195,1232.91949
63.76,1234.76235
63.7790207,1230.14121
63.7917012,1222.22057
63.8043817,1210.58953
63.8170621,1195.4598
63.8297426,1177.09812
63.8424231,1155.81493
63.8551036,1131.95211
63.8741243,1092.11242
63.8994852,1033.36002
63.9755681,842.969418
64.0136095,751.492285
64.0389704,694.45815
64.0516509,667.324557
64.0770119,615.977427
64.0928624,585.891364
64.108713,557.339462
64.1324889,517.321759
64.1562648,480.539361
64.1800407,446.802141
64.2038166,415.898707
64.2196672,396.762734
64.2434431,370.097038
64.2592937,353.587218
64.2830696,330.573154
64.2989202,316.314502
64.3147707,302.860301
64.3306213,290.159961
64.3543972,272.419394
64.3702478,261.401269
64.3860984,250.982387
64.401949,241.124661
64.4257249,227.313035
64.4415755,218.707633
64.4732767,202.808914
64.5049779,188.483125
64.536679,175.543034
64.5683802,163.826162
64.5842308,158.381593
64.615932,148.240894
64.6476332,139.004484
64.6793344,130.572694
64.695185,126.630899
64.7268862,119.246387
64.7427368,115.785886
64.7744379,109.288082
64.7902885,106.236151
64.8219897,100.492984
64.8378403,97.7896545
64.8695415,92.6919467
64.8853921,90.2875184
64.9329439,83.5976337
64.9804956,77.6095997
65.0280474,72.2307029
65.0597486,68.9440327
65.1073004,64.4124853
65.1390016,61.6313937
65.1865533,57.7810355
65.2182545,55.4085133
65.2658063,52.1113662
65.2975075,50.072259
65.3450593,47.2286267
65.3767605,45.4640688
65.4084616,43.7957074
65.4401628,42.2167657
65.5035652,39.302871
65.5669676,36.6787573
65.6303699,34.3076338
65.6937723,32.1583131
65.7571747,30.2042266
65.8205771,28.4226348
65.8839794,26.7939887
65.9473818,25.3014116
66.0107842,23.9302757
66.0424854,23.2862048
66.1058877,22.0738815
66.1692901,20.954132
66.2643937,19.4284237
66.327796,18.5025281
66.3911984,17.6417137
66.486302,16.459749
66.5814055,15.3937399
66.6765091,14.429087
66.7716126,13.5534092
66.835015,13.0137773
66.9301186,12.263696
67.0252221,11.577683
67.1203257,10.9486844
67.183728,10.5579741
67.3105328,9.83807627
67.3739351,9.50607627
67.5007399,8.89181234
67.6275446,8.33679368
67.690947,8.07916323
67.7543494,7.83368357
67.8494529,7.48662787
67.9762577,7.05990008
68.1347636,6.57781104
68.2774189,6.18666691
68.4359249,5.79346291
68.5944308,5.43843397
68.7529367,5.11683501
68.9114426,4.82463522
68.9906956,4.6884644
69.1492015,4.43406667
69.2284545,4.31515603
69.3869604,4.09237969
69.4662134,3.9879643
69.6247193,3.79184217
69.7039723,3.6996895
69.9417312,3.44448503
70.1794901,3.21756386
70.417249,3.01497668
70.6550078,2.83344229
70.8135138,2.72274146
71.0512727,2.57041594
71.2890316,2.43275325
71.5267904,2.30800088
71.6852964,2.23125727
71.9230553,2.12480536
72.1608142,2.02773165
72.477826,1.91117612
72.7948379,1.80751078
72.9533438,1.75997639
73.2703556,1.67258872
73.5873675,1.594394
73.7458734,1.55839783
74.0628853,1.49200943
74.3798971,1.43240046
74.5384031,1.40490781
74.8554149,1.35414433
75.3309327,1.2875186
75.6479446,1.24875486
75.9649564,1.21404546
76.4404742,1.16885379
76.7574861,1.14289604
77.2330038,1.10962946
77.5500157,1.09095068
78.0255335,1.06778728
78.3425453,1.05539708
78.8180631,1.04114206
79.2935809,1.03186741
79.7,1.02776551
80.1340304,1.02721771
80.5746701,1.0307089
81.0554785,1.03924079
81.5362869,1.05286136
82.0170953,1.07183158
82.4979037,1.09652129
82.9787121,1.12742493
83.4595205,1.16518342
83.9403289,1.21061383
84.4211373,1.26474922
84.9019457,1.32889225
85.2224846,1.37800942
85.5430235,1.43288746
85.703293,1.46269914
86.023832,1.52755763
86.1841014,1.56282628
86.5046404,1.63967263
86.6649098,1.68153722
86.9854488,1.77296892
87.3059877,1.87595245
87.4662572,1.93232901
87.7867961,2.0561592
87.9470656,2.12421885
88.1874698,2.23496924
88.3477392,2.31516279
88.5881434,2.44614219
88.7484129,2.54135669
88.9888171,2.69753963
89.1490866,2.8115932
89.3894908,2.99961121
89.5497602,3.13763617
89.7901644,3.36648412
89.8702992,3.44922896
90.0305686,3.6255203
90.1107034,3.71948327
90.2709728,3.92020192
90.3511076,4.02747364
90.511377,4.25728369
90.5915118,4.38046753
90.7517812,4.64520576
90.831916,4.78757611
90.9921854,5.09462387
91.0723202,5.26034455
91.1845088,5.50745542
91.2806705,5.73452405
91.424913,6.10448821
91.5371016,6.41939226
91.6653172,6.81213829
91.7935328,7.24441795
91.9217484,7.72169707
92.0499639,8.25041865
92.1781795,8.8382196
92.3063951,9.49420562
92.3705029,9.85109971
92.4346106,10.2293026
92.4987184,10.6305386
92.5628262,11.0567096
92.626934,11.5099172
92.7230957,12.245582
92.7872035,12.7771296
92.8833652,13.6436925
92.9474729,14.2726359
93.0436346,15.3029237
93.1077424,16.0544524
93.2039041,17.2922025
93.2680119,18.2001532
93.3000658,18.6816298
93.3641736,19.7046379
93.4282813,20.8152861
93.4763622,21.711886
93.524443,22.6683744
93.5564969,23.3419534
93.6206047,24.78329
93.6526586,25.5549672
93.7167664,27.211314
93.7488203,28.1009066
93.8129281,30.0167837
93.844982,31.0493149
93.9090898,33.2812382
93.9571706,35.1171398
93.9892245,36.4267494
94.0212784,37.8108988
94.0693592,40.0394723
94.1014131,41.6360591
94.133467,43.3296108
94.1815478,46.0692124
94.2136017,48.0414554
94.2456556,50.1419917
94.2937365,53.5580761
94.3257904,56.0308452
94.3578443,58.6766057
94.3898982,61.5114967
94.421952,64.5535324
94.4540059,67.8228608
94.4860598,71.3420636
94.5181137,75.1365043
94.5501676,79.2347325
94.5822215,83.668955
94.5982485,86.0232622
94.6303024,91.0312389
94.6623562,96.4755646
94.7024236,103.97138
94.7184506,107.207335
94.742491,112.340834
94.7585179,115.962418
94.7825583,121.717694
94.7985853,125.785076
94.8226257,132.260472
