energy [eV],cross section [b]
1e-05,31.0736998
1.08963831e-05,29.7681458
1.14939718e-05,28.983972
1.20915605e-05,28.2586746
1.27605716e-05,27.5079293
1.35010052e-05,26.7429869
1.46116557e-05,25.7065178
1.5810801e-05,24.7124628
1.71869363e-05,23.7024769
1.85630716e-05,22.8069938
2.01585036e-05,21.8858702
2.12952239e-05,21.2937357
2.30003043e-05,20.4892553
2.49771012e-05,19.6617399
2.6385538e-05,19.1297805
2.92024116e-05,18.1837564
3.09475147e-05,17.6636347
3.26926178e-05,17.1857352
3.61828241e-05,16.3358498
3.94261911e-05,15.6495031
4.15884358e-05,15.2372527
4.37506805e-05,14.8559543
4.75109008e-05,14.2559555
5.15295477e-05,13.6887817
5.55481945e-05,13.1843277
5.88676919e-05,12.8072078
6.38469379e-05,12.2976725
6.8826184e-05,11.8444832
7.2939159e-05,11.5056878
7.7052134e-05,11.1943949
8.1165109e-05,10.9070743
8.52780841e-05,10.6407991
9.0374206e-05,10.3364334
9.5470328e-05,10.0567754
0.00010056645,9.79865344
0.000105662572,9.55943817
0.000111976848,9.28600339
0.000121448262,8.91655934
0.000130919676,8.58796953
0.000142655094,8.22714805
0.000154390512,7.90829116
0.00016706099,7.60248246
0.000176754723,7.39107209
0.000191295322,7.10461871
0.000206994494,6.82988753
0.000219005373,6.63996153
0.000231016252,6.46504691
0.000243027131,6.303265
0.000256473523,6.1358068
0.000271355428,5.96518184
0.000293678286,5.73399122
0.000308560191,5.59400684
0.0003269994,5.43399784
0.000354658213,5.21780599
0.000382317025,5.02552127
0.000416587276,4.81437518
0.000450857526,4.62778599
0.000487858379,4.44883237
0.000516166416,4.32511891
0.000558628473,4.15749166
0.00058693651,4.05599448
0.000622011173,3.93997823
0.000657085836,3.83337989
0.00070969783,3.6885542
0.000748964538,3.59056074
0.00079242329,3.49071415
0.000835882042,3.39875924
0.000879340794,3.31370837
0.000954917105,3.17987503
0.00100876404,3.09384169
0.00106261098,3.01443366
0.00114981704,2.89786735
0.00124989444,2.77943292
0.00134997184,2.67442549
0.00146599726,2.56641135
0.00154866356,2.49697561
0.001672663,2.40263946
0.00176520939,2.33880874
0.00186763586,2.27377094
0.00202127558,2.18564709
0.00212370205,2.13228868
0.00225061209,2.0712974
0.00237752212,2.01525724
0.00250443216,1.96353265
0.00270996521,1.887604
0.00294583427,1.81045849
0.00326032634,1.72092588
0.00355257647,1.64862151
0.0038448266,1.58472634
0.00416036278,1.52344587
0.00452247106,1.46118331
0.00488457934,1.40597949
0.00515483711,1.36862691
0.00545394711,1.33056797
0.00590261212,1.27899947
0.00620172213,1.24777509
0.00657233004,1.21208409
0.00694293795,1.1792904
0.00731354586,1.1490221
0.00791375194,1.10459001
0.00860254647,1.05944583
0.00952093917,1.00705294
0.01037438,0.9647417
0.0112278209,0.927351375
0.0121492626,0.891491124
0.0132067061,0.855056162
0.0142641496,0.822751854
0.0150533675,0.800893773
0.0159268408,0.778622337
0.0172370508,0.748445344
0.0181105242,0.730173373
0.0191927887,0.709287611
0.0202750531,0.690097297
0.0213573176,0.672384799
0.0231546866,0.645760745
0.0253,0.617775471
0.0278034384,0.589306817
0.0302956915,0.564546973
0.0327879446,0.542666759
0.0354787767,0.521681914
0.0385667667,0.500360749
0.0416547568,0.481456771
0.0439594632,0.468665758
0.046510216,0.455632852
0.0503363453,0.437973727
0.0528870981,0.427281239
0.0560475713,0.415059194
0.0592080446,0.403829298
0.0623685178,0.393464193
0.0655289911,0.383858296
0.0694449296,0.372878279
0.0733608681,0.362789584
0.0772768066,0.353477798
0.0836187384,0.339808631
0.0908967185,0.325920383
0.0981746987,0.313606639
0.106612476,0.300940294
0.115630151,0.288966888
0.124647827,0.278317518
0.13209664,0.270356249
0.139545454,0.263041245
0.150718674,0.253102983
0.159057752,0.24637844
0.168287096,0.23952672
0.177516441,0.233216537
0.186745785,0.227380116
0.197078199,0.221338907
0.208513684,0.215183442
0.219949168,0.209514481
0.231384653,0.204271139
0.251271367,0.196020358
0.272524824,0.188220937
0.293778281,0.181283972
0.320112069,0.17366652
0.346445856,0.166934967
0.37487788,0.160478849
0.396630211,0.156015612
0.418382543,0.151905124
0.451011039,0.146306285
0.47796295,0.142120681
0.50491486,0.138274835
0.558818681,0.131435421
0.592213054,0.127675098
0.625607427,0.124220007
0.692396174,0.118075498
0.754461394,0.113113282
0.816526614,0.108728136
0.883537097,0.104522389
0.960438107,0.100249182
1.03733912,0.0964603789
1.12649484,0.0925630303
1.19001689,0.090057626
1.28529997,0.0866537069
1.35641404,0.0843504764
1.43512012,0.082003658
1.51382619,0.0798422964
1.59253227,0.0778431826
1.68064512,0.0757738961
1.77816474,0.0736654422
1.87568437,0.0717236019
1.97320399,0.0699275245
2.08237894,0.0680683947
2.26362435,0.0652842893
2.44486976,0.062815739
2.65499789,0.0602764162
2.87956738,0.0578759219
3.10413688,0.055740795
3.28963659,0.0541445574
3.56788616,0.0519877548
3.84613573,0.0500693623
4.07597646,0.0486351449
4.30581719,0.0473172998
4.53565792,0.0461008904
4.76549864,0.0449735336
5.05027946,0.0436848512
5.33506028,0.0425007214
5.61984109,0.0414077252
5.90462191,0.0403947375
6.25747545,0.0392367787
6.78675575,0.0376721152
7.31603606,0.03628035
7.97183313,0.034751911
8.62763021,0.0334010834
9.33568021,0.0321053857
9.87738411,0.0312095556
10.68994,0.0299956034
11.567239,0.0288311674
12.2384294,0.028026073
12.9096197,0.027284532
13.5808101,0.0265985933
14.3322196,0.0258885085
15.1638483,0.0251649067
15.9954769,0.0244984119
16.8271056,0.0238818804
17.7581286,0.0232436333
18.788546,0.0225932228
20.3341722,0.0217117778
22.0029515,0.0208662123
23.9180371,0.0200068865
25.8331227,0.0192447917
28.0533906,0.0184606726
29.6352966,0.0179564941
32.0081556,0.0172713582
34.7591463,0.0165664114
36.719184,0.0161131367
40.6392594,0.0153068326
43.0678156,0.014863414
45.4963719,0.014455922
50.3534844,0.0137310984
54.8670854,0.0131456358
57.8761527,0.012793951
60.8852201,0.0124686656
66.118095,0.0119568361
71.7106068,0.0114731129
77.3031186,0.0110430607
84.2324392,0.0105711708
88.8519863,0.0102880033
95.7813069,0.00990279758
101.50509,0.00961534423
110.090764,0.00922799009
115.814546,0.00899484361
122.338219,0.00875023141
130.9375,0.00845782814
135.875,0.0083036149
145.75,0.0080215287
151.658238,0.00786792292
160.886079,0.00764840128
169.673282,0.00746058333
178.019845,0.00730001487
190.1875,0.00709566209
200.0625,0.00695565186
209.9375,0.00684010242
219.8125,0.00675207243
225.743749,0.00671466746
232.65,0.00668873714
237.25175,0.00668400603
244.5,0.0067019808
249.5165,0.00673733871
254.98725,0.00680389368
260.3,0.00690522011
264.092,0.00700660963
267.41,0.00712091442
269.069,0.00718890788
273.1375,0.00739353767
276.5345,0.00761635957
278.075,0.00773712749
279.704514,0.00788094917
282.025,0.00811934961
284.483875,0.00842460323
285.713313,0.00860189268
287.204438,0.00884322285
288.552375,0.00909008226
289.841063,0.00935578767
291.213687,0.00967607872
292.39375,0.00998730355
293.30225,0.0102529898
294.5465,0.0106594072
295.79075,0.0111231641
297.01525,0.0116461884
298.22,0.0122380125
299.168,0.0127677063
300.195,0.0134169181
300.985,0.0139785258
301.39975,0.0142979729
301.8145,0.0146360589
302.565,0.0153000301
303.355,0.016081118
303.75,0.0165074427
304.54,0.0174417325
304.935,0.0179543809
305.725,0.019084375
306.12,0.0197081435
306.7125,0.0207277748
307.305,0.0218614799
307.8975,0.023126868
308.2925,0.0240538894
308.885,0.025587884
309.4775,0.02732035
309.675,0.0279478937
310.07,0.0292869965
310.465,0.0307495685
310.86,0.0323512513
311.255,0.0341102468
311.55125,0.0355453989
311.8475,0.0370912528
312.291875,0.0396435768
312.588125,0.041520822
312.73625,0.0425180119
313.0325,0.0446406882
313.180625,0.0457711241
313.476875,0.0481839519
313.8225,0.0512832434
314.02,0.0532081705
314.2175,0.0552570576
314.415,0.0574407843
314.71125,0.0609960432
314.90875,0.0635729
315.10625,0.066333463
315.30375,0.0692956257
315.6,0.0741615917
315.7975,0.0777215571
316.09375,0.0836039913
316.29125,0.0879341782
316.39,0.0902355968
316.5875,0.0951373236
316.68625,0.097749279
316.88375,0.103327786
316.9825,0.10630879
317.18,0.11269471
317.27875,0.116117736
317.47625,0.12347482
317.67375,0.131591362
317.87125,0.140575658
318.06875,0.150556027
318.216875,0.158785902
318.315625,0.164668032
318.414375,0.170895533
318.513125,0.177495995
318.611875,0.184499816
318.710625,0.19194056
318.809375,0.199855352
318.908125,0.20828535
319.006875,0.217276276
319.105625,0.22687904
319.204375,0.237150462
319.303125,0.248154114
319.401875,0.259961308
319.55,0.279356964
319.64875,0.293546817
319.7475,0.308869471
319.84625,0.325448819
319.945,0.343426169
320.04375,0.362963259
320.1425,0.384245913
320.24125,0.407488471
320.34,0.432939206
320.43875,0.460886978
320.5375,0.491669467
320.63625,0.52568341
320.735,0.563397442
320.83375,0.60536831
320.883125,0.628153102
320.957188,0.664844355
321.006562,0.691137434
321.055938,0.719035576
321.105312,0.748672098
321.154688,0.780194444
321.204062,0.813766023
321.253438,0.849568321
321.302812,0.887803361
321.376875,0.950217589
321.42625,0.995580105
321.500312,1.07000368
321.549688,1.12438016
321.62375,1.2141009
321.673125,1.28004509
321.697813,1.31505905
321.747187,1.38955653
321.796563,1.4705935
321.82125,1.51380592
321.870625,1.60616624
321.92,1.70727121
321.944687,1.76145163
321.994063,1.87786638
322.01875,1.94045989
322.068125,2.07543383
322.092813,2.14827363
322.13725,2.28942617
322.171812,2.40906971
322.201437,2.51925505
322.236,2.65764088
322.2755,2.83023714
322.315,3.02021459
322.3545,3.22998207
322.394,3.46237947
322.4335,3.72077345
322.45325,3.86094449
322.473,4.00917877
322.49275,4.16610483
322.5125,4.33241344
322.53225,4.50886514
322.552,4.69629882
322.57175,4.89564158
322.601375,5.21926142
322.621125,5.45311877
322.65075,5.83441782
322.6705,6.11119815
322.700125,6.56466262
322.719875,6.89548305
322.7495,7.44041785
322.76925,7.84021484
322.779125,8.05224253
322.798875,8.50278716
322.818625,8.99199215
322.833438,9.38696043
322.84825,9.80835238
322.858125,10.1051299
322.877875,10.7402445
322.88775,11.0803129
322.9075,11.8103199
322.917375,12.2024333
322.937125,13.0470005
322.947,13.5022144
322.96675,14.4863124
322.981562,15.2958983
322.991437,15.8734551
323.001313,16.4839295
323.016125,17.466925
323.026,18.171224
323.035875,18.9183525
323.050687,20.1270708
323.060563,20.9973102
323.070438,21.9242284
323.08525,23.431812
323.095125,24.5231964
323.105,25.6910226
323.114875,26.9424271
323.12475,28.285376
323.134625,29.7287796
323.1445,31.2826248
323.154375,32.9581296
323.16425,34.7679215
323.174125,36.726247
323.179062,37.7660633
323.188938,39.9780494
323.198813,42.3829641
323.211156,45.6943881
323.216094,47.1240378
323.2235,49.3921437
323.228438,50.9923318
323.235844,53.5354221
323.240781,55.3327758
323.248187,58.1943709
323.253125,60.220509
323.260531,63.4523568
323.267938,66.9352417
323.274109,70.047105
323.280281,73.3660718
323.287688,77.6464882
323.293859,81.4837502
323.301266,86.4439452
323.308672,91.829534
323.316078,97.6844433
323.323484,104.057221
323.332125,112.218252
323.340766,121.250788
323.344469,125.413887
323.349406,131.257925
323.353109,135.872488
323.358047,142.351512
323.36175,147.467756
323.366688,154.650334
323.370391,160.320493
323.375328,168.276568
323.380266,176.705304
323.385203,185.62756
323.391375,197.502691
323.397547,210.207477
323.403225,222.644206
323.411125,241.141209
323.41705,255.898819
323.42495,276.65756
323.43285,298.447024
323.454575,360.211593
323.462475,381.358217
323.4684,395.883367
323.47235,404.691033
323.4763,412.647312
323.48025,419.627679
323.4842,425.516556
323.48815,430.21173
323.4921,433.628563
323.49605,435.703678
323.5,436.397835
323.505925,434.828032
323.509875,432.069793
323.513825,427.998814
323.517775,422.689575
323.521725,416.236046
323.525675,408.747709
323.529625,400.345201
323.53555,386.306791
323.54345,365.588788
323.5711,287.374207
323.579,266.063527
323.58295,255.828927
323.59085,236.317787
323.5948,227.068521
323.603687,207.529035
323.608625,197.433043
323.613563,187.868368
323.620969,174.484472
323.625906,166.176651
323.630844,158.336107
323.63825,147.402377
323.645656,137.392545
323.653063,128.230249
323.660469,119.841979
323.665406,114.645363
323.672812,107.395357
323.67775,102.898881
323.685156,96.6173522
323.690094,92.7157203
323.6975,87.2563958
323.702437,83.8596293
323.709844,79.0982675
323.714781,76.1302975
323.722188,71.9622167
323.727125,69.3591104
323.737,64.5361849
323.746875,60.173864
323.75675,56.2186232
323.766625,52.6239586
323.7765,49.3494136
323.786375,46.3597358
323.79625,43.624151
323.806125,41.1157404
323.811062,39.9392347
323.820938,37.7282538
323.830812,35.6907079
323.840688,33.809457
323.845625,32.9226398
323.8555,31.247992
323.865375,29.6949666
323.880188,27.5692768
323.895,25.6594664
323.909813,23.9378352
323.924625,22.3808978
323.939437,20.9686538
323.95425,19.6839968
323.964125,18.8910982
323.978938,17.7874516
323.99375,16.7765512
324.008563,15.8484188
324.018438,15.2713085
324.03325,14.4623641
324.043125,13.9578815
324.062875,13.0242427
324.082625,12.1804071
324.0925,11.7886426
324.11225,11.0593021
324.132,10.3950995
324.15175,9.78856102
324.1715,9.23324696
324.19125,8.72358595
324.211,8.25473906
324.23075,7.82248799
324.2505,7.42314248
324.27025,7.05346342
324.29,6.71059858
324.30975,6.39202873
324.339375,5.95491465
324.359125,5.68785554
324.378875,5.43830182
324.4085,5.09357505
324.438125,4.78051786
324.46775,4.49537975
324.497375,4.23494763
324.527,3.9964563
324.556625,3.77751574
324.58625,3.57605184
324.62575,3.33152958
324.6455,3.21855351
324.685,3.00916087
324.70475,2.91203642
324.74425,2.73136688
324.764,2.64726762
324.78375,2.56699072
324.813375,2.45324874
324.86275,2.27979401
324.907187,2.13894141
324.956563,1.99722216
325.005937,1.86913793
325.055313,1.75299656
325.104687,1.64736017
325.154063,1.55100065
325.203437,1.46286409
325.228125,1.42159047
325.2775,1.34412365
325.326875,1.27283093
325.37625,1.20707393
325.400938,1.17609415
325.475,1.09000351
325.549062,1.01305371
325.623125,0.943996182
325.697188,0.881788336
325.77125,0.825554102
325.820625,0.791012824
325.894688,0.743144927
325.96875,0.699513448
326.042812,0.659633203
326.092188,0.634921685
326.16625,0.600393566
326.215625,0.578925773
326.314375,0.539326817
326.413125,0.50368269
326.4625,0.487181247
326.56125,0.456539845
326.635313,0.435432559
326.709375,0.415768861
326.808125,0.391575925
326.906875,0.369455345
327.005625,0.349177156
327.104375,0.330542418
327.203125,0.313378325
327.301875,0.297534191
327.400625,0.28287814
327.499375,0.269294358
327.598125,0.256680802
327.696875,0.244947279
327.795625,0.234013837
327.894375,0.223809395
327.993125,0.214270594
328.14125,0.201088234
328.24,0.192978491
328.33875,0.185360436
328.486875,0.174771141
328.635,0.165085497
328.783125,0.156203593
328.93125,0.148038951
329.12875,0.138140009
329.32625,0.129231388
329.425,0.125107699
329.6225,0.117451407
329.72125,0.113894044
329.91875,0.107266038
330.0175,0.104175922
330.165625,0.0997959834
330.31375,0.0956988871
330.51125,0.090635249
330.70875,0.0859825466
330.8075,0.0837965481
331.005,0.0796808902
331.30125,0.0740842779
331.49875,0.0706940888
331.795,0.0660561992
331.9925,0.0632305856
332.28875,0.0593444447
332.48625,0.0569647415
332.7825,0.0536763312
332.98,0.0516534719
333.1775,0.0497533681
333.375,0.0479662883
333.67125,0.0454786005
333.819375,0.0443144405
334.115625,0.0421308206
334.26375,0.0411060937
334.708125,0.0382722515
335.004375,0.0365629413
335.44875,0.0342337197
335.745,0.0328199619
336.14,0.0310875496
336.535,0.0295104146
336.93,0.0280705349
337.325,0.0267524273
337.72,0.0255427309
338.115,0.0244298671
338.51,0.0234037619
338.905,0.0224556173
339.3,0.021577722
339.695,0.0207632949
340.2875,0.0196477598
340.6825,0.0189673071
341.0775,0.0183321942
341.67,0.0174560138
342.46,0.016412982
342.855,0.0159386394
343.645,0.0150721457
344.04,0.0146758252
344.81025,0.0139652584
345.60025,0.0133120286
346.289409,0.0127965601
346.805,0.0124403107
347.832,0.011796636
348.385,0.0114823714
349.175,0.011067907
349.98475,0.0106806768
351.20925,0.0101577342
352.4535,0.00969213202
353.69775,0.00928216015
355.1,0.00887606138
356.472625,0.00852679022
357.84525,0.00821770278
359.795562,0.00783596675
361.286687,0.00758201033
362.516125,0.00739344809
363.9875,0.00718915801
365.853875,0.006958803
367.828875,0.00674459635
368.925,0.00663695429
370.4655,0.00649748816
372.4405,0.00633638528
374.85,0.006162712
376.3905,0.00606291718
379.59,0.0058790191
381.249,0.00579428684
384.567,0.0056427981
389.356375,0.00545831567
393.306375,0.00532980876
397.4835,0.00521195467
402.5,0.00508971605
409.74825,0.00494132229
414.35,0.00486036701
425.827434,0.00469064519
435.702434,0.00457100131
442.0,0.00450384318
456.8125,0.00436625879
471.625,0.00424933883
491.375,0.00411520609
521.0,0.0039449768
547.945156,0.00381188204
579.739736,0.00367341564
611.534316,0.00355005153
643.328895,0.00343851884
678.923491,0.00332504944
718.318103,0.00321107042
757.712716,0.00310730748
797.107328,0.00301223377
865.615956,0.0028642239
914.427279,0.00277007664
963.238601,0.00268389101
1042.2894,0.0025587053
1133.00784,0.00243334527
1223.72628,0.00232402712
1328.90134,0.0022137603
1441.30471,0.00211203233
1553.70808,0.00202409958
1646.55592,0.00196028468
1739.40376,0.00190340067
1878.67552,0.00182940954
1996.31456,0.00177621752
2107.44369,0.00173293857
2218.57282,0.00169588519
2329.70194,0.00166471208
2456.53692,0.00163612817
2527.80734,0.00162336544
2670.34817,0.0016053621
2741.61859,0.00160046101
2848.52421,0.00159904221
2955.42984,0.0016061835
3062.07238,0.00162443143
3142.05428,0.00164796492
3222.03619,0.00168321014
3275.35746,0.00171553276
3302.01809,0.00173511348
3342.00905,0.00176981669
3368.66968,0.00179727742
3399.6,0.00183463875
3426.0,0.00187258133
3443.6,0.00190204695
3461.2,0.00193619664
3473.52,0.00196409867
3487.6,0.00200234039
3496.9456,0.0020338124
3503.5808,0.00206103027
3509.4944,0.00209063465
3514.7744,0.00212362155
3517.52,0.0021443323
3521.04,0.00217593877
3523.6624,0.00220446768
3526.32,0.00223936092
3529.84,0.00229885262
3531.4592,0.00233335323
3533.6768,0.00239094695
3535.12,0.00243688812
3536.3168,0.00248159808
3537.232,0.0025207773
3538.6752,0.00259356198
3540.048,0.00267887253
3541.104,0.0027585305
3541.808,0.00282021145
3542.512,0.00289024182
3543.568,0.00301461079
3544.272,0.00311357689
3544.624,0.00316891091
3545.328,0.00329349657
3545.68,0.00336382808
3546.208,0.00348121033
3546.736,0.00361528295
3547.22,0.00375570149
3547.616,0.00388535382
3548.012,0.00403060301
3548.408,0.00419407671
3548.804,0.00437898024
3549.2,0.0045892559
3549.552,0.00480139669
3549.728,0.00491771876
3550.08,0.00517395895
3550.432,0.00546664042
3550.608,0.00562885331
3550.784,0.00580304307
3551.048,0.00608947863
3551.224,0.00629926531
3551.4,0.0065260166
3551.576,0.00677161641
3551.752,0.00703821755
3551.928,0.00732828924
3552.104,0.00764467448
3552.192,0.00781374226
3552.368,0.00817592232
3552.456,0.00837006265
3552.632,0.00878733404
3552.72,0.00901176723
3552.896,0.0094959104
3552.984,0.00975728913
3553.16,0.0103234094
3553.336,0.0109547404
3553.512,0.0116617034
3553.644,0.0122490359
3553.732,0.012671194
3553.82,0.0131202653
3553.952,0.0138495195
3554.04,0.0143766808
3554.128,0.0149401531
3554.26,0.0158610235
3554.348,0.0165311241
3554.436,0.0172514174
3554.568,0.0184373973
3554.656,0.0193071728
3554.744,0.0202483358
3554.788,0.0207481543
3554.876,0.0218118128
3554.92,0.0223781116
3555.008,0.02358648
3555.052,0.0242315907
3555.14,0.0256121545
3555.228,0.0271260852
3555.316,0.028791127
3555.36,0.0296866771
3555.448,0.0316185042
3555.536,0.0337606215
3555.624,0.0361446845
3555.668,0.0374389908
3555.712,0.038808534
3555.756,0.0402592578
3555.8,0.0417977041
3555.844,0.0434310872
3555.888,0.0451673779
3555.932,0.0470154009
3555.976,0.048984947
3556.042,0.0521912717
3556.086,0.0545150259
3556.13,0.0570042473
3556.174,0.0596750148
3556.218,0.0625454069
3556.262,0.0656358081
3556.306,0.0689692698
3556.35,0.0725719407
3556.394,0.0764735792
3556.438,0.0807081672
3556.46,0.0829622705
3556.504,0.0877710958
3556.548,0.093021549
3556.592,0.0987693357
3556.636,0.105079217
3556.658,0.108468096
3556.702,0.115766944
3556.746,0.123842485
3556.7768,0.130017737
3556.8032,0.135691958
