energy [eV],cross section [b]
1e-05,35.8054401
1.06428295e-05,34.7072707
1.16070738e-05,33.2343847
1.25713181e-05,31.9343888
1.33794395e-05,30.9549463
1.4187561e-05,30.060427
1.49956824e-05,29.2392278
1.58038039e-05,28.4818504
1.6819719e-05,27.6082989
1.78356342e-05,26.8104891
1.88515494e-05,26.0780727
2.05060342e-05,25.0039244
2.24217431e-05,23.9119134
2.36988824e-05,23.258681
2.49760217e-05,22.6562164
2.65815541e-05,21.9613398
2.89898527e-05,21.0293579
3.13981513e-05,20.2067737
3.34165172e-05,19.5870226
3.54348831e-05,19.0210074
3.84624319e-05,18.2570517
4.07402908e-05,17.7393194
4.32776427e-05,17.2114404
4.58149947e-05,16.7280453
4.83523466e-05,16.283218
5.28108084e-05,15.5807231
5.60005943e-05,15.1304797
5.91903801e-05,14.717141
6.43851566e-05,14.1109463
7.04001284e-05,13.4946707
7.64151003e-05,12.9526736
8.34611659e-05,12.3938659
8.85022409e-05,12.0357146
9.60638533e-05,11.5523148
0.000101753039,11.224715
0.000108090334,10.8906948
0.00011442763,10.5848221
0.000120764926,10.3033536
0.000127916982,10.0111718
0.000135883798,9.71326367
0.000143850614,9.44046
0.00015181743,9.18942206
0.000160808507,8.92882902
0.000175831513,8.53887505
0.00019085452,8.19592151
0.000208452789,7.84233086
0.000221043389,7.61570742
0.000239929288,7.30983178
0.000262052632,6.99446905
0.000277880675,6.79234666
0.000301622741,6.51954031
0.000319485731,6.3346596
0.000339383668,6.14615553
0.000359281605,5.97353654
0.000379179542,5.81469001
0.000401635675,5.64979741
0.000439157169,5.40305051
0.000464171499,5.25544845
0.000489185828,5.1193177
0.000536355292,4.88903032
0.000583524756,4.68726354
0.000634737144,4.49419652
0.000674269299,4.36046016
0.000733567533,4.18050709
0.000797948254,4.00831322
0.000847645385,3.88903556
0.000897342515,3.77980933
0.000947039646,3.67929776
0.00100312613,3.57496046
0.00106560198,3.46857833
0.00112807782,3.37116093
0.00119055366,3.28151601
0.00126106177,3.18845899
0.00133960214,3.0935782
0.0014574127,2.96590845
0.00158532087,2.84374354
0.00173342426,2.71954707
0.00188152766,2.61031977
0.00205501912,2.49770465
0.00217914278,2.42552733
0.00236532827,2.32810897
0.00258342991,2.22766907
0.00273946971,2.16329509
0.00289550951,2.10419759
0.00305154931,2.04969301
0.00324771191,1.98682798
0.00344387451,1.9294137
0.00364003711,1.87670543
0.00383619971,1.82809353
0.00420610308,1.74585858
0.00457600644,1.67380825
0.00497761445,1.60486457
0.00544263174,1.53477438
0.00590764903,1.47313204
0.00645238014,1.40957778
0.00684210549,1.36884456
0.00742669351,1.31386658
0.00786652425,1.27660804
0.00835646039,1.23861929
0.00909136459,1.18750236
0.00958130072,1.15674274
0.010197215,1.12126491
0.0108131293,1.0888632
0.0114290436,1.05911733
0.0124321006,1.0154926
0.0135935288,0.971142398
0.014754957,0.932137645
0.0161154786,0.891923114
0.0175755469,0.854072226
0.0190356153,0.820664345
0.0202592808,0.795494192
0.0214829464,0.772506432
0.0233184447,0.741479651
0.0246151387,0.721685341
0.0264958783,0.695600474
0.0276917565,0.680414841
0.030083513,0.652806931
0.0329842986,0.623441067
0.0349181556,0.605931299
0.0368520127,0.589818554
0.0402500544,0.564372446
0.0438967242,0.540421956
0.047543394,0.519282817
0.0521277386,0.495923403
0.0551839683,0.481995057
0.0597683129,0.463141345
0.0636103965,0.448936589
0.069373522,0.429884896
0.0751366474,0.413069525
0.0799666529,0.400400495
0.0847966584,0.388829941
0.089626664,0.378207778
0.0944566695,0.368411146
0.100528623,0.35711181
0.109636553,0.341956922
0.118744484,0.328580942
0.130194353,0.313800063
0.141644222,0.300849766
0.154075466,0.288457857
0.163671463,0.279874057
0.178065457,0.268323862
0.19369317,0.257271687
0.205756602,0.249615912
0.217820034,0.242605283
0.235915183,0.233115543
0.251080507,0.225965788
0.266245832,0.219435956
0.281411156,0.213441348
0.296576481,0.207912628
0.325173698,0.198559897
0.353770916,0.190365481
0.384819218,0.182524392
0.42076969,0.174552909
0.456720162,0.167542213
0.498833308,0.160314074
0.528962962,0.155681412
0.574157444,0.149428669
0.608160745,0.145191189
0.646037693,0.140870661
0.702853114,0.135057044
0.740730061,0.131558699
0.788346376,0.127523743
0.835962692,0.123838641
0.883579007,0.120455592
0.961125314,0.115494077
1.05091529,0.110450054
1.14070527,0.106013978
1.24588715,0.101440314
1.35876499,0.0971354706
1.47164282,0.0933359388
1.56624437,0.0904732974
1.66084592,0.0878588635
1.80274823,0.0843301401
1.96897562,0.0806919701
2.08790223,0.0783601935
2.20682884,0.0762195437
2.32575546,0.0742452608
2.5500151,0.0709054402
2.69952152,0.0689140305
2.84902795,0.0670815065
3.11173045,0.064187488
3.39365438,0.0614635692
3.67557831,0.0590593902
4.02999385,0.0564026981
4.26627087,0.0548186126
4.62068641,0.0526743613
4.91771778,0.0510588413
5.36326482,0.048892076
5.80881187,0.0469796512
6.18221945,0.0455387938
6.55562703,0.0442228677
6.9290346,0.0430148036
7.30244218,0.0419006282
7.77186473,0.0406155506
8.47599854,0.0388919815
9.18013236,0.03737073
10.0653214,0.0356897015
10.9505104,0.0342168672
11.9115695,0.0328075408
12.6534357,0.0318313104
13.7662349,0.0305177158
14.9744129,0.0292607632
15.9070365,0.0283900814
16.8396601,0.0275927727
18.2385954,0.0265135205
19.4110262,0.0257003926
20.583457,0.024957769
21.7558877,0.0242760168
22.9283185,0.0236472501
25.1391685,0.0225835919
27.3500185,0.0216516694
29.7503618,0.0207599331
32.5296917,0.0198533717
35.3090216,0.0190560806
38.5647875,0.0182340651
40.8941102,0.0177072214
44.3880942,0.0169961396
47.0168883,0.0165142427
49.9451539,0.0160229038
54.3375524,0.0153617722
57.265818,0.0149639389
60.9470338,0.0145050848
64.6282497,0.0140860188
68.3094655,0.0137013046
74.3045682,0.013137095
81.2462285,0.0125635098
85.874002,0.0122203994
90.5017756,0.0119039575
99.2283576,0.0113686512
107.95494,0.0108996492
117.429482,0.0104508775
124.743125,0.010140021
132.056767,0.00985536425
143.027231,0.00947005345
152.221444,0.00917975849
166.012763,0.00879041803
175.206976,0.00855681187
185.583251,0.00831431884
202.920756,0.00795145995
214.479094,0.00773440702
226.037431,0.00753422769
247.832961,0.00719560323
269.628491,0.00689893021
293.29213,0.00661506275
320.691984,0.00632649047
348.091838,0.0060727145
368.706866,0.0059007399
391.670351,0.0057254035
426.11558,0.0054894897
463.513129,0.00526376704
492.381257,0.00510742285
521.249386,0.00496426384
550.117514,0.00483253638
582.697099,0.00469580586
618.988141,0.0045564083
673.424705,0.00436886069
732.527059,0.00418942867
800.960994,0.00400704755
869.39493,0.00384668352
949.559893,0.00368138763
1006.91354,0.00357547323
1092.94402,0.00343256074
1193.72195,0.00328527731
1265.82305,0.00319092213
1373.9747,0.00306363763
1455.34554,0.002977434
1545.98612,0.00288960416
1636.62671,0.00280925019
1727.2673,0.00273539339
1829.56117,0.0026588492
2000.48192,0.00254469364
2171.40266,0.00244504771
2371.62285,0.00234421731
2514.86945,0.00228252176
2586.49275,0.00225567918
2693.92771,0.0022232808
2765.55101,0.00221146261
2801.36266,0.00221146551
2834.3,0.002217795
2859.9,0.00222955695
2885.5,0.00225124187
2904.7,0.00227805148
2917.5,0.00230369577
2930.3,0.00233844968
2941.82,0.00238080059
2952.9048,0.00243584288
2957.18,0.00246210866
2965.0648,0.00252027494
2968.8024,0.00255325317
2975.8936,0.00262815511
2979.3368,0.00267168514
2984.1624,0.0027426317
2987.6952,0.00280346936
2991.996,0.00289010965
2996.1432,0.00298987454
2999.42,0.00308273748
3002.8248,0.00319550426
3005.82,0.00331150747
3008.6616,0.00343938258
3010.94,0.00355703123
3012.22,0.00363000613
3014.1272,0.00374926757
3015.7208,0.00385986151
3017.6536,0.00400946369
3018.62,0.00409146272
3019.7912,0.00419805906
3021.0712,0.0043245646
3022.8504,0.00452014998
3024.06,0.00466810227
3025.5576,0.00487069928
3026.6328,0.00503118693
3028.2456,0.00529915611
3029.3208,0.00549858237
3030.3704,0.00571166283
3031.932,0.00606748122
3033.1608,0.00638549967
3033.8264,0.00657386621
3035.004,0.00693874678
3036.0536,0.00730268543
3036.5912,0.00750510657
3037.564,0.00790249024
3038.076,0.00812937985
3039.1,0.00862473927
3039.868,0.00903721669
3040.636,0.00948986488
3041.404,0.00998806907
3042.172,0.010538148
3042.94,0.0111475549
3043.708,0.0118251311
3044.476,0.0125814284
3045.244,0.0134291214
3046.012,0.0143835422
3046.268,0.0147285166
3046.78,0.0154633772
3047.292,0.0162640707
3047.804,0.0171386978
3048.316,0.0180966445
3048.828,0.0191488347
3049.212,0.0200074293
3049.788,0.0214218778
3050.172,0.022459781
3050.748,0.024180327
3050.94,0.0248024277
3051.324,0.026127985
3051.516,0.0268346316
3051.9,0.0283445435
3052.156,0.0294291222
3052.412,0.0305822097
3052.668,0.0318096981
3052.924,0.0331181265
3053.18,0.0345147689
3053.564,0.03679313
3053.82,0.0384479092
3054.204,0.0411608221
3054.46,0.0431414637
3054.844,0.0464068312
3055.1,0.0488048096
3055.228,0.0500773667
3055.484,0.0527833948
3055.612,0.0542229644
3055.868,0.0572921379
3056.124,0.0606402387
3056.38,0.06430211
3056.508,0.0662631045
3056.764,0.0704735454
3057.02,0.0751119559
3057.276,0.0802383508
3057.532,0.085923644
3057.724,0.0906045027
3057.852,0.0939461203
3057.98,0.0974804457
3058.108,0.101222583
3058.236,0.105189145
3058.364,0.109398438
3058.492,0.113870674
3058.62,0.118628214
3058.748,0.123695844
3058.876,0.129101102
3059.004,0.134874655
3059.132,0.141050726
3059.26,0.14766761
3059.452,0.158514879
3059.58,0.166433691
3059.708,0.174968973
3059.836,0.184186392
3059.964,0.194160598
3060.092,0.204976733
3060.22,0.216732257
3060.348,0.229539147
3060.476,0.243526567
3060.604,0.258844138
3060.732,0.275665948
3060.86,0.294195516
3060.988,0.314671963
3061.116,0.337377758
3061.212,0.356069665
3061.308,0.376368108
3061.372,0.390885335
3061.436,0.406263184
3061.5,0.42257101
3061.596,0.448945924
3061.66,0.46793112
3061.724,0.488151368
3061.788,0.509716085
3061.884,0.544854284
3061.948,0.570344441
3062.044,0.612079559
3062.108,0.64250784
3062.204,0.692598658
3062.268,0.729326213
3062.3,0.748797439
3062.364,0.790158366
3062.428,0.835049021
3062.46,0.858944718
3062.524,0.909923085
3062.588,0.965583321
3062.62,0.995350144
3062.684,1.05916976
3062.716,1.09340761
3062.78,1.16706008
3062.812,1.20670954
3062.876,1.29231957
3062.9208,1.35778445
3062.9592,1.41793789
3063.0168,1.51594547
3063.0616,1.59936866
3063.1128,1.70341814
3063.164,1.81794959
3063.2152,1.94441595
3063.2664,2.08453018
3063.3176,2.24032298
3063.3432,2.32483796
3063.3816,2.46084582
3063.4072,2.55824099
3063.4328,2.6615189
3063.4584,2.77116124
3063.4968,2.94873674
3063.5224,3.07674259
3063.5608,3.28490464
3063.5864,3.43559396
3063.6248,3.68175282
3063.6504,3.860787
3063.6888,4.15472623
3063.7144,4.36963725
3063.7272,4.4833663
3063.7528,4.72448098
3063.7656,4.85235476
3063.7912,5.12408106
3063.804,5.26852787
3063.8296,5.57623345
3063.8424,5.74022133
3063.868,6.09049328
3063.8808,6.27767929
3063.9064,6.6786688
3063.9192,6.89359808
3063.9448,7.35548302
3063.9576,7.60385754
3063.9832,8.13947069
3064.0088,8.73305815
3064.028,9.22138919
3064.0472,9.75131003
3064.06,10.1300341
3064.0728,10.5309442
3064.092,11.1777613
3064.1048,11.64213
3064.1176,12.1355693
3064.1304,12.660513
3064.1432,13.2196496
3064.156,13.8159546
3064.1688,14.452727
3064.1816,15.1336312
3064.1944,15.8627454
3064.2072,16.6446173
3064.22,17.4843283
3064.2328,18.387568
3064.2456,19.3607203
3064.2584,20.4109637
3064.2648,20.9674834
3064.2776,22.1488527
3064.2904,23.4295485
3064.2968,24.1105295
3064.3096,25.5613224
3064.3224,27.1418484
3064.3288,27.9854316
3064.3416,29.7897241
3064.3544,31.7659108
3064.3608,32.8249943
3064.3736,35.0998651
3064.38,36.3221854
3064.3928,38.9547403
3064.3992,40.3730379
3064.412,43.4360938
3064.4216,45.9513482
3064.4312,48.6744112
3064.4408,51.6264538
3064.4472,53.7331988
3064.4536,55.9596938
3064.4632,59.5418775
3064.4696,62.1044901
3064.476,64.817755
3064.4856,69.1925204
3064.492,72.3282146
3064.4984,75.6528052
3064.508,81.0208611
3064.5144,84.8725241
3064.5208,88.9581933
3064.5272,93.2916015
3064.5336,97.886578
3064.54,102.756805
3064.5464,107.915495
3064.5528,113.374984
3064.5624,122.15158
3064.572,131.656456
3064.58224,142.608997
3064.59248,154.38212
3064.60272,166.909045
3064.61296,180.058863
3064.64112,217.340578
3064.65136,230.108641
3064.65904,238.880622
3064.66416,244.200803
3064.66928,249.007728
3064.6744,253.226206
3064.67952,256.786428
3064.68464,259.626633
3064.68976,261.69565
3064.69488,262.955123
3064.7,263.381257
3064.70512,262.965924
3064.71024,261.71705
3064.71536,259.658238
3064.72048,256.827671
3064.7256,253.276371
3064.73072,249.065979
3064.73584,244.26622
3064.74096,238.952232
3064.74864,230.187681
3064.75888,217.426165
3064.78704,180.146562
3064.79728,166.993646
3064.80752,154.462514
3064.81776,142.684538
3064.828,131.72685
3064.8376,122.217107
3064.8472,113.435752
3064.8568,105.355506
3064.8632,100.339759
3064.8696,95.6060768
3064.876,91.1409708
3064.8824,86.9306534
3064.8888,82.9613169
3064.8952,79.2193462
3064.9016,75.6914739
3064.908,72.3648913
3064.9144,69.2273229
3064.9208,66.2670738
3064.9304,62.1350853
3064.9368,59.5709658
3064.9432,57.1480362
3064.9528,53.7589098
3064.9592,51.6509557
3064.9656,49.6552386
3064.9752,46.8567357
3064.988,43.4559954
3064.9944,41.8842601
3065.0072,38.9722064
3065.0136,37.6225935
3065.0264,35.1152917
3065.0328,33.9500831
3065.0456,31.7796204
3065.052,30.7682678
3065.0648,28.8795661
3065.0776,27.1532577
3065.084,26.3454836
3065.0968,24.8308774
3065.1096,23.4391876
3065.116,22.7854642
3065.1288,21.5551576
3065.1416,20.4192193
3065.148,19.8837388
3065.1608,18.8725444
3065.1736,17.934784
3065.1864,17.0636857
3065.2056,15.8690219
3065.2184,15.1396031
3065.2312,14.4584178
3065.244,13.8213854
3065.2568,13.2248396
3065.2696,12.6654795
3065.2824,12.1403281
3065.2952,11.6466954
3065.308,11.1821463
3065.3208,10.7444729
3065.34,10.1340181
3065.3528,9.75515108
3065.3656,9.39689187
3065.3912,8.73652022
3065.4168,8.14271538
3065.4296,7.868043
3065.4552,7.35844453
3065.468,7.1218526
3065.4936,6.6813893
3065.5064,6.47620531
3065.532,6.0930068
3065.5448,5.91394733
3065.564,5.65970488
3065.5832,5.42140781
3065.6088,5.12625887
3065.6216,4.98758908
3065.6472,4.72652128
3065.66,4.60356694
3065.6984,4.26204119
3065.724,4.05495085
3065.7624,3.77139669
3065.788,3.59850578
3065.8264,3.36056012
3065.852,3.21476119
3065.8904,3.01317721
3065.916,2.88911122
3065.9544,2.71686435
3065.98,2.6104305
3066.0056,2.51011632
3066.0312,2.4154629
3066.0568,2.32605342
3066.0824,2.24150862
3066.1336,2.08566045
3066.1848,1.94549592
3066.236,1.81898367
3066.2872,1.70441016
3066.3384,1.60032202
3066.3832,1.51686746
3066.4408,1.41882255
3066.4792,1.35864591
3066.524,1.29315551
3066.588,1.20751161
3066.62,1.16784626
3066.684,1.09416389
3066.748,1.02724461
3066.78,0.996065726
3066.844,0.937823982
3066.908,0.884550137
3066.94,0.859601654
3067.004,0.812774166
3067.068,0.769677026
3067.132,0.72992462
3067.228,0.675841502
3067.292,0.643065064
3067.356,0.61262189
3067.42,0.584295807
3067.484,0.557895093
3067.548,0.533249234
3067.612,0.510206171
3067.676,0.488629956
3067.74,0.468398746
3067.804,0.449403085
3067.868,0.431544424
3067.932,0.414733841
3067.996,0.398890937
3068.06,0.383942873
3068.124,0.369823534
3068.188,0.356472798
3068.284,0.337769338
3068.412,0.315049133
3068.54,0.294559302
3068.604,0.285060679
3068.732,0.26740045
3068.796,0.259183815
3068.924,0.243855346
3068.988,0.236700047
3069.116,0.22331032
3069.18,0.217041196
3069.308,0.205276614
3069.372,0.199753192
3069.5,0.189361077
3069.564,0.184469643
3069.756,0.170892284
3069.884,0.162665863
3070.076,0.151409468
3070.204,0.144550139
3070.396,0.135114464
3070.524,0.129335354
3070.716,0.121347979
3070.844,0.116433677
3071.036,0.109612733
3071.164,0.10539895
3071.292,0.101428074
3071.42,0.0976817876
3071.612,0.0924475198
3071.74,0.0891932423
3071.996,0.0831906887
3072.252,0.0777878066
3072.508,0.0729072978
3072.764,0.0684839281
3073.02,0.0644623372
3073.276,0.0607952977
3073.532,0.057442323
3073.788,0.0543685444
3073.916,0.0529267658
3074.172,0.0502164943
3074.428,0.0477172574
3074.812,0.0443181065
3075.068,0.0422586805
3075.324,0.0403462542
3075.708,0.0377237749
3075.964,0.0361223962
3076.22,0.0346265321
3076.604,0.032560996
3076.988,0.0306859654
3077.372,0.0289787096
3077.692,0.0276700481
3078.076,0.0262218809
3078.46,0.024893191
3078.844,0.0236711853
3079.228,0.0225447382
3079.612,0.0215041377
3080.188,0.0200858716
3080.572,0.0192248711
3080.828,0.0186846979
3081.34,0.0176781367
3081.596,0.0172087988
3082.108,0.0163314369
3082.364,0.0159210671
3082.876,0.0151516977
3083.644,0.0141124094
3084.156,0.0134868137
3084.924,0.0126359287
3085.436,0.0121203888
3086.204,0.0114149644
3086.716,0.0109850957
3087.484,0.0103937607
3087.996,0.0100315754
3088.508,0.00969247947
3089.02,0.00937454977
3089.788,0.00893361204
3090.3,0.00866141459
3091.324,0.00816331454
3092.3224,0.00772995293
3093.3464,0.00733164143
3094.396,0.00696531467
3095.5736,0.00659789205
3096.956,0.00621677394
3097.98,0.00596449324
3099.0296,0.00572892752
3100.0792,0.00551396696
3101.1544,0.00531268562
3102.2296,0.00512840968
3103.3048,0.00495927219
3104.7,0.00475973901
3106.5496,0.00452525909
3107.4392,0.00442312999
3109.2184,0.00423686252
3110.3896,0.00412589523
3111.7464,0.00400751482
3113.6792,0.00385548372
3115.9,0.00370150217
3118.46,0.00354700086
3120.7384,0.00342680784
3123.58,0.00329587184
3125.5768,0.00321453461
3128.1368,0.00312117824
3131.26,0.00302140099
3133.2568,0.00296454919
3137.404,0.00286089908
3139.5544,0.00281371185
3145.2376,0.00270640218
3148.3416,0.0026566391
3151.7848,0.00260741182
3156.86,0.00254442874
3160.5976,0.00250412739
3165.7176,0.00245579243
3172.22,0.00240373872
3182.46,0.00233788619
3190.14,0.00229820021
3199.1,0.00225970886
3205.5,0.00223627412
3218.3,0.00219716184
3231.1,0.00216584567
3243.9,0.00214019
3269.5,0.0021005009
3307.9,0.00205864399
3345.82276,0.00202884068
3421.19106,0.00198623869
3496.55935,0.00195435163
3634.87417,0.00190776482
3748.06624,0.00187532442
3861.2583,0.0018458018
4087.64242,0.00179250275
4427.21861,0.00172239768
4854.11063,0.00164621425
5281.00266,0.00158011443
5565.59734,0.00154057274
6096.03617,0.00147479577
6626.475,0.00141754592
7221.57338,0.00136155398
7896.22517,0.00130680611
8570.87695,0.00126029754
9091.58874,0.0012309809
9427.45827,0.00121848055
9547.58328,0.00121729212
9667.70829,0.00122043051
9747.79163,0.0012274037
9803.84997,0.00123681703
9838.52605,0.00124579376
9876.56564,0.00126002738
9910.44089,0.00127865801
9931.98331,0.00129491612
9947.35931,0.00130947209
9960.81331,0.00132484053
9973.78682,0.00134260988
9991.56532,0.00137312851
10004.0583,0.00140022722
10012.9476,0.00142322382
10020.075,0.00144441077
10030.0454,0.00147907661
10038.0537,0.00151214044
10046.5425,0.00155356754
10054.5509,0.0016001836
10062.1187,0.00165272089
10067.4843,0.00169615075
10074.2113,0.00175955815
10080.8582,0.00183434589
10084.1417,0.00187671224
10088.4662,0.00193904898
10093.7517,0.00202721195
10096.955,0.00208828046
10100.3185,0.00215974288
10103.3617,0.00223187515
10106.565,0.00231670338
10109.7683,0.00241215441
10111.37,0.00246442538
10114.5733,0.00257939971
10117.7767,0.00271043545
10120.1792,0.00282110848
10122.5817,0.00294416775
10124.1833,0.00303402032
10125.785,0.00313088163
10128.1875,0.00329097769
10130.59,0.00347152218
10132.9925,0.00367614809
10134.5942,0.00382811317
10136.1958,0.00399433203
10137.7975,0.00417664325
10139.7996,0.00443046389
10141.0008,0.00459849188
10142.8027,0.00487596935
10144.6046,0.00518853641
10146.4065,0.00554236563
10147.0071,0.00567074215
10148.2083,0.00594504888
10149.0092,0.00614208571
10149.81,0.00635156911
10150.6108,0.00657456948
10151.4117,0.00681227482
10152.2125,0.00706600651
10153.4137,0.0074799229
10154.2146,0.00778055157
10155.0154,0.00810317675
10155.8162,0.00844999719
10157.0175,0.00902110787
10157.8183,0.00943999636
10158.6192,0.00989330726
10159.42,0.010384917
10159.8204,0.0106464463
10160.6212,0.0112040276
10161.2219,0.0116551367
10161.8225,0.012137349
10162.2229,0.0124775343
10163.0237,0.0132071386
10163.4242,0.0135986969
10164.225,0.0144413512
10165.0258,0.0153726527
10165.8267,0.016405483
10166.6275,0.0175551508
10167.2281,0.0185049563
10167.6285,0.0191847692
10168.029,0.0199053497
10168.4294,0.0206700229
10168.8298,0.0214824602
