energy [eV],cross section [b]
1e-05,10000.0
1.0634834394390842e-05,9697.39263826745
1.1282582485626044e-05,9415.331850443179
1.1942997713822077e-05,9151.705150589505
1.2615838201167026e-05,8904.689000814069
1.3300915809790936e-05,8672.683930041962
1.3997982954465929e-05,8454.315410948266
1.54272950391185e-05,8053.75515876937
1.690270020642682e-05,7694.766799738526
1.842242943971045e-05,7371.035717416785
1.998526576128282e-05,7077.402887214686
2.1590025427776155e-05,6809.697764934216
2.3237700474006972e-05,6564.205218430491
2.4925346762256864e-05,6338.42412061247
2.6652063987525397e-05,6129.973792463209
2.841697201373558e-05,5936.853566383319
3.0219417041684223e-05,5757.348578285793
3.2058496623622546e-05,5590.02201367833
3.393351184839176e-05,5433.622712876616
3.584377706646028e-05,5287.07052501472
3.779629850296819e-05,5148.905077517323
3.9783094358632766e-05,5018.884201762579
4.385724216198832e-05,4780.441686417959
4.806204994641234e-05,4566.861099577521
5.239347549235066e-05,4374.303051934137
5.684884153474579e-05,4199.655248217155
6.142399498110407e-05,4040.461818838898
6.611596706137058e-05,3894.674722534616
7.092186218637887e-05,3760.6030930863935
7.542422592939493e-05,3646.8044750341796
8.001817601520222e-05,3540.7326079211457
8.470196379519272e-05,3441.5930696321575
8.947387382688217e-05,3348.7000999433776
9.433257180146209e-05,3261.4522012676457
9.927630179839131e-05,3179.332468434001
0.00010941324926729686,3028.697656102859
0.00011987709746178807,2893.696382767519
0.00013065530018614336,2771.9539718167844
0.00014173922640798564,2661.530318867812
0.0001531204807989156,2560.8570477795115
0.0001648060990545873,2468.537044808356
0.0001767752008020486,2383.629735326866
0.00018902140091058272,2305.2398404475675
0.00020153845729123398,2232.6149884942097
0.00021432173307830372,2165.11028714781
0.00022736482794430505,2102.1854075059755
0.00024066278508114947,2043.3698380708279
0.00025421074173467834,1988.2573769736257
0.00026805838735827474,1936.2988360519882
0.0002821491135450659,1887.4031452990791
0.000311043728448718,1797.7343792262511
0.0003408650082694313,1717.4151976767153
0.00037158428483339114,1645.0017587200769
0.0004031825704782532,1579.3236516341938
0.000435630410698669,1519.4573213423037
0.0004689067504245689,1464.632580812907
0.0005029910535983717,1414.213562373095
0.0005349226556878851,1371.4184188694835
0.0005675038051755581,1331.528999714011
0.0006007221003198311,1294.2465542803384
0.0006345653748831588,1259.3131953665777
0.0006690241656989983,1226.5027236040532
0.0007040860194518863,1195.6207514742903
0.0007759791385899146,1138.9729773563922
0.0008501906985488041,1088.204356748844
0.0009266317193721619,1042.4218680307313
0.0010052409881711106,1000.8959149477508
0.001085958963713276,963.0366934831719
0.0011688355444624144,928.3188046104643
0.0012537226429252342,896.388535544291
0.0013405749745656614,866.9092074293104
0.0014293482693264299,839.5978831402365
0.001520009641692533,814.2120442721224
0.001612513699349574,790.5484945708052
0.0017068252876915394,768.4302933368599
0.0018029099191604005,747.7046841698856
0.0019011200006126521,728.1651391996689
0.002001054054685212,709.7774106112704
0.0022059800442977427,676.0565467065987
0.0024174781140643494,645.8516904496635
0.0026353449439577912,618.6198701975278
0.002859445869940865,593.9209409320048
0.0030895719951766617,571.4075902452633
0.003325573993187402,550.7901813640126
0.003567306218428522,531.8295896944988
0.0037937710867067976,515.7360347916232
0.004024842666090651,500.73520748587424
0.004260433001119511,486.71475952430484
0.004500455806571123,473.5777097660063
0.004744843967906145,461.2389936064289
0.004993509163892275,449.6255096152494
0.0055033885526578905,428.32253015882674
0.006029710755461946,409.23046698997916
0.006571844709883976,392.0134901217264
0.007129356282717083,376.39722736100475
0.007701823196453578,362.159876826851
0.008289599340290449,349.1038567988376
0.008891634450148615,337.09614993750444
0.00950760735966542,326.01014468837394
0.01013720409735082,315.73943962859624
0.010780191433008497,306.192833211794
0.011436247435891849,297.29391139177625
0.012105122782988585,288.97613379438803
0.01278657288211494,281.1820548004457
0.013483097068321905,273.83400747519596
0.01419184798938793,266.9191125747595
0.015645221268758648,254.2380340646141
0.01714520496442589,242.87918647800805
0.018690357092894485,232.63837973095264
0.020279722591735633,223.35009275176782
0.02191181992568149,214.88371512893798
0.023585590043544265,207.1303259679121
0.0253,200.0
0.026832550785800657,194.19809636404622
0.028394822479194535,188.7741840566374
0.02998626840208245,183.69092529522413
0.03160635197150048,178.91589549767295
0.034930617213254266,170.18005239719147
0.03836378259963129,162.3784024475908
0.04190340554712004,155.36129918550884
0.045545549217999,149.01303353193828
0.04928747068154854,143.2384961873661
0.05312650068136908,137.96031126490018
0.05706472136438057,133.1093378967104
0.061095616792189306,128.63843321268365
0.06521714222384734,124.50276724749065
0.06942729821028935,120.66450476937621
0.07372458679653032,117.09109919210205
0.07810695996200173,113.75516933502072
0.08257282169970658,110.63280377424101
0.087120606058498,107.70329614269008
0.09239794808515336,104.57887541521768
0.09777763412296013,101.6580092477335
0.10325778168467235,98.92059062898146
0.10883654304566501,96.34915838710232
0.12028365777138791,91.64476290456615
0.13210577038641652,87.44344582994893
0.14429446984901687,83.66462007644965
0.15683619964977166,80.24597439805477
0.16972151450067036,77.13629086950739
0.18294122281138667,74.29390130050623
0.19650249445945278,71.68157219423401
0.21038289179657232,69.27391633818665
0.22457537375276054,67.0467920572045
0.23907305522073055,64.97982445543583
0.2538707779891724,63.05548665980034
0.26896148969472056,61.25903345325798
0.2843396944837444,59.57758813996601
0.29999999699999996,58.00000030221406
0.3,72.0
0.317420877314689,70.02096393926836
0.33517062871977193,68.16478228853592
0.3716341914339698,64.7760672420763
0.40934937236652924,61.75709210723237
0.4482761157939908,59.04822618213619
0.48838866393943026,56.60160169666535
0.5296456721650018,54.379872817930156
0.5720181289336153,52.352112819081604
0.6154777244284712,50.49298506819673
0.6600462314389685,48.7797051158431
0.7056546050936862,47.19663303883101
0.7522809822960953,45.728837792758796
0.7999039384740861,44.363657674726625
0.848507387330375,43.09015226094572
0.89806929978725,41.89908072711518
0.9485724733413885,40.78234290922169
1.0,39.7329
1.0555679968587512,38.672088275160334
1.1121279903448325,37.67507672532763
1.2281568381388233,35.84983184085539
1.3479632461930293,34.218313868202586
1.4714278254892925,32.750105298481394
1.5984719962348393,31.420643053528764
1.7289732032170593,30.21061876216846
1.8628442130951874,29.10397692861639
2.0,28.0875
2.117514682842575,27.29618415311604
2.237242657001498,26.554990766385103
2.359144332111367,25.859101509161473
2.4831808285851786,25.204315690915262
2.7375261870994234,24.00368185426167
3.0,22.9285
3.231096936321209,22.092279499365127
3.467833921108156,21.32389856994969
3.7100821434584335,20.615084131354504
3.957715747615885,19.95889573418884
4.210641401042498,19.349393669408332
4.4687301581756005,18.781608806930684
4.73188228935296,18.251219651597438
5.0,17.7545
5.478854301590964,16.959722549459453
5.972068649940905,16.243256767561668
6.479245913227576,15.59361072309621
7.0,15.0015
7.716376694409766,14.286952545584699
8.455612094439433,13.647046657974558
9.217036512136948,13.070206737514892
10.0,12.5472
10.555766576336032,12.211715382745309
11.121442627249895,11.896429132671287
12.281850714670732,11.319283319496751
13.479989238083718,10.80345322611122
14.71466260987337,10.33930361428344
15.985083479576144,9.919055420367004
17.29002519946073,9.53659439480197
18.628614406716224,9.186837312015127
20.0,8.8656
21.175258012687678,8.615427090234318
22.37261840021281,8.38111826953716
23.59168456646658,8.161147003039899
24.832067096025078,7.954182603780215
27.37545801454734,7.574722238629851
30.0,7.23495
32.31126160104658,6.970637218677487
34.67884439894762,6.727792885251246
37.10145784394623,6.503796205186083
39.577841256979966,6.296448920762513
42.107059327626374,6.103870099623666
44.68782105743169,5.924486318490376
47.31912768545984,5.756929456328068
50.0,5.60002
54.78887614469693,5.3489278392919335
59.721134998844974,5.122604329086119
64.79279846376929,4.917411294845991
70.0,4.73041
77.16421549598728,4.5047813124975775
84.55672520405074,4.302744212461747
92.17082252197311,4.120637108954352
100.0,3.95554
105.55796987990722,3.849723035698008
111.21499765353504,3.750279313146665
122.81949848128264,3.568249009257763
134.80114505493486,3.40556404912672
147.14797555755638,3.259183601494182
159.8521110501522,3.126652821261165
172.90128122722055,3.0060423033703842
186.2867488626362,2.8957480975427456
200.0,2.79445
211.7484577770586,2.7160628675712717
223.71907121246232,2.6426255766638365
235.90790019988464,2.573663561926758
248.31107373493572,2.5087629487452037
273.7473060631989,2.389729253311229
300.0,2.2831
323.09946401121255,2.2003288609723874
346.7657063460251,2.124244472851464
370.98593235895527,2.0540343300287773
395.74763173209755,1.9890163950716913
421.04154160239835,1.92860658217306
446.85482239495025,1.8723160799463572
473.1775532880169,1.8197195281603187
500.0,1.77045
547.8600542964817,1.6921789857443326
597.1726919057181,1.6215541236601494
647.8987296457078,1.5574615415261708
700.0,1.499
771.5689327410815,1.4291106001981433
845.4685705832985,1.3664152749557001
921.633497010587,1.3098121481836518
1000.0,1.25842
1111.6260516519299,1.1961315608345877
1227.285168062368,1.14066455780082
1346.860790703783,1.0909095893785945
1470.2391705342193,1.0459926302473361
1597.34687331055,1.0052031042298188
1728.0651168150803,0.9679806040987886
1862.3101901766872,0.9338563903314149
2000.0,0.902443
2116.943376648539,0.8791101558971397
2236.2560188566026,0.8571690119518318
2481.8472342807822,0.8169693777315967
2736.513699557641,0.7809982924200918
3000.0,0.748594
3228.7313850884298,0.7250429599681707
3463.736411512356,0.7032167707081226
3704.9102319152016,0.6829227587262937
3952.1483547579073,0.6639970266190907
4205.37736317196,0.6462970780059976
4464.484968624408,0.6297027935374855
4729.387117439466,0.6141082036083053
5000.0,0.599421
5474.719213280322,0.5780124858050425
5966.480242839583,0.5584170174608737
6475.002067150828,0.5404004476705527
7000.0,0.523769
7707.372025862492,0.5057388169350814
8443.414405626154,0.4892288553016086
9207.753569088674,0.47404214490679
10000.0,0.460016
11072.134456491676,0.4464803655885719
12195.565438608312,0.4340050144097983
13370.046072952153,0.42245965254858187
14595.271340191395,0.4117358904289647
15871.269141565193,0.4017397458735224
17197.533934574938,0.3923954174327187
18573.85950065224,0.38363571425677606
20000.0,0.375403
22301.553015582063,0.36678351617921884
24734.926294373225,0.3587721082127919
27300.891120691762,0.35129935413628466
30000.0,0.344307
34043.988117859146,0.3372170173225675
38374.78462907366,0.3306378165120598
42996.60277934157,0.3245086065939883
47913.0,0.318779
50000.0,0.316573
59526.40490178003,0.3081918991144159
70000.0,0.300602
84261.21511740754,0.29129190806755373
100000.0,0.28295
106451.0,0.276732
120000.0,0.265787
129818.36824792594,0.25973801451962675
140000.0,0.25406
146163.0,0.251297
156112.0,0.24775
170000.0,0.243652
175745.0,0.242336
200000.0,0.238528
202036.0,0.237414
213508.48927674696,0.23135797867420904
225204.0,0.225657
250000.0,0.215471
258094.0,0.213094
281412.0,0.207187
300000.0,0.203137
305294.0,0.200828
322336.0,0.193465
346932.867046013,0.18479847432330243
371976.0,0.176943
372579.0,0.176772
400000.0,0.16972
405910.0,0.168446
409565.0,0.167577
440276.0,0.161495
455128.0,0.158946
475515.0,0.155641
488068.0,0.153735
500000.0,0.151997
515183.0,0.148299
547319.0,0.141214
584476.0,0.134739
593515.0,0.133294
600000.0,0.132293
628727.1163430316,0.1284870395561254
657787.0,0.124914
658088.0,0.124864
693940.0,0.120966
699162.0,0.120424
700000.0,0.120326
719047.0,0.11764
744153.0,0.114361
760221.0,0.112437
800000.0,0.108023
849776.359302481,0.10310430392827626
900000.0,0.0986332
949846.7203660546,0.09434098562691724
1000000.0,0.0904183
1049973.726156658,0.08625389057846794
1100000.0,0.0824581
1150049.6793481547,0.0786294224186633
1200000.0,0.0751372
1250107.6617564585,0.07165071720990612
1300000.0,0.0684669
1350182.5649751953,0.06518799651152364
1400000.0,0.0621984
1450234.0506927993,0.05918820290254471
1500000.0,0.0564437
1550298.4234020726,0.05362181232926089
1600000.0,0.0510541
1650353.2214835498,0.04843539660015893
1700000.0,0.0460563
1750407.9548356032,0.0436241643908363
1800000.0,0.041419
1850462.5904155674,0.039161589969800396
1900000.0,0.0371197
1950509.0133452283,0.0350459548831209
2000000.0,0.0331737
2039977.040238021,0.03154902035390226
2079166.8525844424,0.03006202417268469
2117613.6938265464,0.02869648113135344
2155358.1187353996,0.02743856479323633
2192435.8969667787,0.02627647494726285
2228881.913312825,0.025199985371477652
2264727.066960353,0.02420028305796538
2300000.0,0.0232697
2352111.538646234,0.021768349835771143
2402744.123384007,0.020431042140269102
2452007.6359293982,0.0192331942002936
2500000.0,0.0181548
2552281.7037111977,0.016951903705466568
2602962.4587946786,0.015883042855057924
2652165.436473665,0.014927796033304946
2700000.0,0.0140696
2740832.7500701128,0.013305100173281006
2780590.3672679276,0.012610673200709783
2819342.038239858,0.01197748316040479
2857150.448059254,0.01139808444823875
2894070.6036356576,0.010866190679768658
2930155.2223675004,0.010376401086114203
2965450.790139458,0.00992410640230276
3000000.0,0.00950533
3036749.4572703657,0.009027462443619436
3072563.5832114844,0.008590009759382683
3107498.7763087284,0.008188266085554154
3141606.47934026,0.007818210374925978
3174932.319610853,0.007476402580585448
3207520.0019100863,0.007159853000130701
3239408.4533654707,0.006865980428902751
3270633.5986148226,0.00659253466667802
3331212.753735655,0.006099374432729423
3389503.7224457436,0.005667198103035644
3445707.5825335565,0.005285789259681525
3500000.0,0.00494704
3536369.0764688877,0.004721716381203892
3571883.486248268,0.004513672810810569
3606590.2962051523,0.004321080566097747
3640532.793315409,0.004142353397036163
3706278.6003281637,0.0038211526037270015
3769403.373915107,0.003540946018188387
3830138.9558263603,0.0032946920198614273
3888701.0827855268,0.0030767850820423446
3945268.8205519235,0.002882793121661761
4000000.0,0.00270914
4069534.75142256,0.0025267939204053434
4136739.114822012,0.0023648837546487687
4201797.9176415475,0.002220289664813008
4264874.790469723,0.0020904812562228094
4326109.519143118,0.0019733975265545946
4385634.520026945,0.001867321576899448
4443563.719599969,0.0017708330723511185
4500000.0,0.00168274
4566227.7098466335,0.0016140007113811653
4631288.471459444,0.0015501138794570596
4695238.108489695,0.0014906014593889906
4758128.47413211,0.0014350448177877333
4880917.147647729,0.0013343731601002248
5000000.0,0.00124564
5127025.156113851,0.0011945279192866732
5252659.526580105,0.001147195499236352
5376965.192425229,0.0011032471794632723
5500000.0,0.00106234
6000000.0,0.00102669
6500000.0,0.00107821
7000000.0,0.00120992
7500000.0,0.00133534
8000000.0,0.00143809
8500000.0,0.00154096
9000000.0,0.00159467
9500000.0,0.00159091
10000000.0,0.00155125
10500000.0,0.00152229
11000000.0,0.00143664
11500000.0,0.00136556
12000000.0,0.00127257
12251980.808012238,0.0012165915422434302
12500000.0,0.00116494
12752615.490801807,0.0011058713437113433
13000000.0,0.00105197
13252870.004667021,0.0009962391490178143
13500000.0,0.000945567
13752985.754701216,0.0008948248109276526
14000000.0,0.000848732
14252901.489189921,0.0008045682182430843
14500000.0,0.000764332
15000000.0,0.000718439
15252546.92277063,0.000684887406589817
15500000.0,0.000654031
15752500.652662799,0.0006241837166896426
16000000.0,0.00059668
16500000.0,0.000573142
16752271.930210665,0.0005490787899517238
17000000.0,0.000526761
17252265.44804654,0.0005049121901946113
17500000.0,0.000484628
18000000.0,0.000472074
18500000.0,0.000461937
18752167.57480899,0.0004438457343532697
19000000.0,0.000426978
19500000.0,0.000420064
19752245.82916063,0.00040350488608068474
20000000.0,0.000388069
