energy [eV],cross section [b]
1e-05,23.7168024
1.08781355e-05,22.7393949
1.1756271e-05,21.8736541
1.27029506e-05,21.0428146
1.34254626e-05,20.4687586
1.41479746e-05,19.9392582
1.52317426e-05,19.2168118
1.61234448e-05,18.6778643
1.74609982e-05,17.9482289
1.87985515e-05,17.2979221
1.98990632e-05,16.812791
2.09995749e-05,16.366314
2.21000866e-05,15.9536163
2.32005982e-05,15.5706427
2.45588161e-05,15.1339542
2.6596143e-05,14.5427587
2.94716053e-05,13.8151063
3.19860119e-05,13.260994
3.45004185e-05,12.7686195
3.74073565e-05,12.2624603
3.94761591e-05,11.9368209
4.25793629e-05,11.4936123
4.61670171e-05,11.0379955
4.872027e-05,10.7448728
5.25501494e-05,10.3459206
5.54023492e-05,10.0760898
5.8553496e-05,9.80121016
6.17046427e-05,9.54766548
6.83758875e-05,9.0699444
7.42094611e-05,8.70615654
8.19875594e-05,8.28289448
8.91871778e-05,7.94154305
9.63867963e-05,7.63919031
0.000104148392,7.34902654
0.000110072091,7.14854225
0.00011895764,6.87638087
0.000128536764,6.61519131
0.000135847613,6.43472633
0.000143158463,6.26826822
0.000154124736,6.04115401
0.000163147563,5.87172601
0.000172170389,5.71579762
0.000190216042,5.43791602
0.000201351739,5.2854062
0.000212487436,5.14504799
0.000234758831,4.89491418
0.000255373836,4.69318682
0.000275988842,4.51450639
0.000298212983,4.34302924
0.00031517459,4.22454968
0.000340617001,4.06371133
0.000368045357,3.90935697
0.000388978854,3.80270815
0.000409912351,3.70433694
0.000441312598,3.57011997
0.000467148081,3.46999364
0.000505901306,3.33444108
0.000560597213,3.16760092
0.00060842526,3.04055099
0.000672195989,2.89273018
0.000731223904,2.77351599
0.000790251818,2.66792176
0.000853887245,2.56658442
0.000926737694,2.46364073
0.000999588144,2.37216675
0.00108381149,2.27813184
0.00114375136,2.21763413
0.00123366116,2.13529424
0.00133760705,2.05064914
0.001411583,1.9961924
0.00155953491,1.89914446
0.0016964832,1.82087745
0.00187908092,1.73014575
0.00198106949,1.68502186
0.00209374776,1.63905366
0.00226276516,1.57665091
0.00244497546,1.51676384
0.00265357158,1.45592746
0.00286216769,1.4018693
0.00301751405,1.36530711
0.00318914269,1.32806082
0.00344658564,1.27749822
0.00372412369,1.22897398
0.00393594251,1.19544689
0.00435958016,1.13587925
0.00459619973,1.10625428
0.00485762005,1.076075
0.00538046069,1.02245542
0.00567248934,0.995788624
0.00599512632,0.96862286
0.00647908179,0.931744785
0.00700081311,0.896353386
0.00759809617,0.860400963
0.00819537923,0.828454248
0.00888590592,0.79561313
0.00937733826,0.774484661
0.0101144868,0.745727931
0.0109667137,0.716166103
0.0115732245,0.697147377
0.0127862461,0.663253883
0.0135347832,0.644652095
0.0142833202,0.62753244
0.0157803944,0.597023297
0.0171661268,0.572418321
0.0190137701,0.543894755
0.0206158333,0.522333573
0.0223260619,0.5019283
0.0240362906,0.483741537
0.0263912139,0.461653927
0.0274824279,0.452395482
0.0296648558,0.435435534
0.0314015066,0.423222836
0.0340064829,0.406689068
0.0376831198,0.386339
0.0398264412,0.375798828
0.0419697626,0.366076719
0.0465073557,0.347758569
0.0504751884,0.333809121
0.0557656321,0.317579071
0.0606626101,0.304489839
0.0655595881,0.292895976
0.070838807,0.281769456
0.0768825077,0.270466509
0.0829262084,0.260422854
0.0874270923,0.253629809
0.0923997261,0.246709632
0.099858677,0.237315305
0.104831311,0.231617452
0.110968384,0.225120404
0.117105457,0.219140992
0.12324253,0.21361394
0.129379602,0.208484939
0.13695379,0.202636526
0.144527978,0.197254064
0.152102166,0.192278794
0.16435027,0.184973408
0.178372017,0.177552138
0.19706768,0.168917474
0.214372892,0.161953704
0.231678104,0.15578544
0.250334101,0.149865752
0.264572477,0.145775575
0.278810853,0.142002815
0.300168418,0.136855211
0.317740987,0.133015018
0.335313556,0.12948075
0.370458694,0.123182158
0.392146222,0.119725218
0.413833751,0.116543661
0.457208807,0.110873625
0.497357934,0.106300709
0.550890104,0.100999314
0.597307032,0.0969917916
0.646857859,0.0931989726
0.696408686,0.0898183878
0.737178097,0.0872963679
0.798332215,0.083881881
0.859486332,0.0808384823
0.909802695,0.0785679962
0.960119058,0.0764783346
1.01043542,0.074546696
1.06075178,0.0727541117
1.1228507,0.0707100165
1.18494962,0.0688287008
1.24704854,0.0670896392
1.30914746,0.0654757561
1.38578805,0.0636354197
1.50074893,0.06114377
1.61570981,0.0589228366
1.75759102,0.0564879968
1.89947223,0.0543311184
2.05242819,0.0522609831
2.16916517,0.0508305244
2.34427062,0.0488884641
2.5330442,0.0470244793
2.6771174,0.0457364537
2.82119061,0.0445482956
3.03730042,0.042927012
3.33465021,0.0409590969
3.69027171,0.0389250906
4.07771632,0.0370190533
4.51661351,0.0351632124
4.89717457,0.0337601456
5.30342971,0.0324321243
5.70968484,0.0312483541
6.21107253,0.0299505582
6.54533098,0.0291694446
7.04671867,0.0281036562
7.45925025,0.0273085627
8.07804761,0.0262321812
8.95141192,0.024907511
9.4605458,0.0242215442
9.96967967,0.0235889493
11.0475592,0.0223975462
11.6759167,0.0217808493
12.3042742,0.0212123405
13.4276078,0.0202981792
14.4869,0.0195366118
16.0376,0.0185632051
17.2270044,0.0179095038
18.6232002,0.0172260969
20.1772006,0.0165540874
21.377177,0.016089022
23.2742,0.0154343145
24.308,0.0151135945
25.424504,0.014792404
26.933852,0.0143957601
28.4432,0.0140380791
29.797478,0.013747325
32.5784,0.0132317265
35.431688,0.012808755
37.168472,0.0126029998
38.7812,0.0124485619
40.269872,0.0123398498
41.8826,0.0122632016
43.9502,0.0122392995
45.490562,0.0122891874
46.8123125,0.0123910913
47.682218,0.0124951475
48.400709,0.0126077685
49.37765,0.0128072659
50.070296,0.0129874202
50.938688,0.0132688555
51.584813,0.0135266594
52.2206,0.0138292255
52.923584,0.0142320191
53.46116,0.0145984159
54.091778,0.0151068431
54.70172,0.0156971786
55.322,0.0164214031
55.73552,0.0169893122
56.14904,0.017639425
56.3558,0.0179999532
56.76932,0.0188031798
56.97608,0.0192511874
57.28622,0.0199899518
57.49298,0.0205323116
57.7743265,0.0213431888
58.00988,0.0220949931
58.32002,0.0232017556
58.63016,0.0244634961
58.83692,0.025404977
59.04368,0.0264386541
59.327975,0.0280331215
59.56058,0.0295109629
59.793185,0.0311719479
59.948255,0.0323960458
60.103325,0.033725951
60.258395,0.0351740254
60.413465,0.0367544883
60.59438,0.038787736
60.74945,0.0407149057
60.90452,0.0428361691
61.0079,0.0443711661
61.11128,0.0460132247
61.26635,0.0486994774
61.42142,0.0516890529
61.57649,0.0550290095
61.67987,0.0574777665
61.78325,0.0601266999
61.88663,0.0629980943
61.99001,0.0661174207
62.09339,0.0695138986
62.170925,0.072263191
62.24846,0.0752032949
62.35184,0.0794516484
62.45522,0.0841202326
62.5586,0.0892661005
62.66198,0.0949563161
62.71367,0.0980297755
62.81705,0.104689668
62.86874,0.108301778
62.97212,0.116163918
63.049655,0.122686133
63.12719,0.129818788
63.204725,0.137640277
63.28226,0.14624198
63.359795,0.155730936
63.43733,0.166233175
63.514865,0.177897901
63.566555,0.186406594
63.618245,0.195571225
63.69578,0.210701602
63.74747,0.221828965
63.79916,0.23389819
63.825005,0.24031951
63.876695,0.254011178
63.90254,0.261315137
63.95423,0.276932988
63.980075,0.285288718
64.031765,0.303210974
64.05761,0.3128301
64.1093,0.333532481
64.135145,0.344682597
64.186835,0.368770091
64.238525,0.395533905
64.26437,0.410044872
64.290215,0.425385009
64.3289825,0.450092268
64.3548275,0.467800716
64.3806725,0.486592851
64.4065175,0.506558792
64.4323625,0.527798215
64.4582075,0.550421594
64.4840525,0.574551637
64.52282,0.613874774
64.548665,0.642404314
64.57451,0.672992862
64.600355,0.70584309
64.6262,0.741183207
64.652045,0.779270913
64.67789,0.820398088
64.703735,0.864896371
64.72958,0.913143841
64.755425,0.965573026
64.78127,1.02268058
64.807115,1.08503902
64.83296,1.15331107
64.858805,1.22826721
64.8717275,1.26852728
64.8975725,1.35524458
64.9234175,1.45119933
64.941509,1.52458077
64.957016,1.59201276
64.972523,1.66402926
64.98803,1.7410544
64.998368,1.79541898
65.019044,1.9120848
65.029382,1.97473309
65.050058,2.10963832
65.060396,2.18233687
65.081072,2.33947761
65.096579,2.46874132
65.106917,2.56095787
65.117255,2.65843475
65.127593,2.76157833
65.137931,2.87083482
65.148269,2.9866951
65.158607,3.10970012
65.174114,3.30892771
65.184452,3.45254872
65.19479,3.60570098
65.205128,3.76924279
65.215466,3.94413081
65.225804,4.1314338
65.236142,4.33234874
65.24648,4.54821956
65.256818,4.78055924
65.267156,5.0310758
65.272325,5.16374497
65.282663,5.44523321
65.293001,5.75023816
65.303339,6.08143386
65.313677,6.44188232
65.318846,6.63415601
65.329184,7.04524693
65.339522,7.49543253
65.344691,7.73673861
65.355029,8.25532471
65.365367,8.82730097
65.370536,9.13560421
65.380874,9.80213508
65.386043,10.1627636
65.3937965,10.7417112
65.40155,11.3708893
65.4093035,12.0561902
65.417057,12.8043809
65.4248105,13.623261
65.432564,14.5218529
65.4403175,15.5106347
65.448071,16.6018232
65.4558245,17.809723
65.463578,19.1511558
65.468747,20.129298
65.473916,21.182317
65.4765005,21.7392469
65.4816695,22.9191391
65.4868385,24.1947641
65.4920075,25.5763931
65.4971765,27.0756533
65.5023455,28.7057358
65.5075145,30.4816401
65.5126835,32.4204595
65.5178525,34.5417155
65.5230215,36.8677488
65.5281905,39.4241764
65.5333595,42.2404226
65.5385285,45.3503348
65.541113,47.0273745
65.546282,50.6526897
65.5488665,52.613003
65.5527432,55.7567008
65.5553278,57.998637
65.5592045,61.6006723
65.561789,64.1741121
65.5656657,68.3160104
65.5682503,71.2800496
65.572127,76.0579959
65.5760037,81.2703224
65.5798805,86.960843
65.5837572,93.1766595
65.587634,99.9676942
65.5915107,107.385813
65.5940953,112.705498
65.5966797,118.342382
65.6005565,127.423737
65.603141,133.913893
65.6057255,140.764805
65.6103776,154.024513
65.6124452,160.301466
65.6165804,173.543206
65.618648,180.489527
65.6227832,194.954062
65.6372564,248.051441
65.6413916,262.119192
65.644493,271.652403
65.6465606,277.358884
65.6486282,282.444948
65.6506958,286.828648
65.6527634,290.435607
65.654831,293.20198
65.6568986,295.077159
65.66,296.146773
65.6631014,295.090786
65.665169,293.224551
65.6672366,290.466916
65.6693042,286.868413
65.6713718,282.492824
65.6734394,277.414469
65.675507,271.715248
65.6786084,262.192013
65.6827436,248.13576
65.6951492,202.531578
65.701352,180.601662
65.7054872,166.924248
65.7075548,160.416176
65.71169,148.098475
65.7142745,140.879942
65.716859,134.028703
65.7207357,124.424843
65.7246125,115.596035
65.7284892,107.496938
65.732366,100.077062
65.7349505,95.481999
65.7388272,89.0781213
65.7414117,85.1127745
65.7452885,79.5846281
65.747873,76.1592239
65.7504575,72.9267998
65.753042,69.8752361
65.7569188,65.6121921
65.7595032,62.9642699
65.7620878,60.4601547
65.7646722,58.0907161
65.768549,54.7705689
65.7711335,52.7017253
65.7763025,48.879024
65.7814715,45.4339714
65.7866405,42.3216585
65.7918095,39.5031082
65.794394,38.1932361
65.799563,35.7532711
65.804732,33.5305437
65.809901,31.5011333
65.8124855,30.5522898
65.8176545,28.7745341
65.820239,27.9413528
65.825408,26.3767052
65.8279925,25.6417264
65.8331615,24.2584763
65.835746,23.6073005
65.840915,22.3792301
65.8434995,21.7999216
65.851253,20.1878598
65.8590065,18.7445957
65.86676,17.447855
65.871929,16.6553566
65.8796825,15.5624827
65.8848515,14.8916396
65.892605,13.9626989
65.897774,13.390194
65.9055275,12.5944225
65.9106965,12.102188
65.91845,11.4156152
65.923619,10.9894961
65.928788,10.5865467
65.933957,10.2051369
65.944295,9.50109809
65.954633,8.86688353
65.964971,8.29364064
65.975309,7.77386384
65.985647,7.30115812
65.995985,6.87004921
66.006323,6.4758302
66.016661,6.11443697
66.026999,5.78234634
66.032168,5.62631555
66.042506,5.3325542
66.052844,5.06114088
66.068351,4.69118571
66.083858,4.36027432
66.099365,4.06312267
66.114872,3.79530764
66.130379,3.5531047
66.145886,3.33336005
66.161393,3.13338917
66.1769,2.95089575
66.192407,2.7839064
66.207914,2.6307178
66.218252,2.53552191
66.238928,2.36002958
66.249266,2.27905357
66.269942,2.12915269
66.290618,1.99361098
66.300956,1.93065947
66.321632,1.81341496
66.3397235,1.71940521
66.362984,1.60895121
66.38366,1.51950938
66.409505,1.41787322
66.43535,1.3261611
66.461195,1.24312299
66.48704,1.16769943
66.4999625,1.13255566
66.5258075,1.06690286
66.53873,1.03621501
66.564575,0.978716411
66.5774975,0.951762276
66.6033425,0.901122055
66.616265,0.877319915
66.64211,0.832489598
66.6550325,0.811366683
66.6938,0.752659531
66.7325675,0.700174756
66.771335,0.653063169
66.79718,0.624285428
66.8359475,0.584610032
66.8617925,0.560257512
66.90056,0.526531895
66.926405,0.505741715
66.9651725,0.476832987
66.9910175,0.458942698
67.0168625,0.442061217
67.0427075,0.426114069
67.081475,0.403798727
67.10732,0.389904101
67.15901,0.364232469
67.2107,0.341076297
67.26239,0.320117168
67.31408,0.301085497
67.36577,0.283751816
67.41746,0.267919821
67.46915,0.253420778
67.52084,0.240109008
67.57253,0.227858206
67.62422,0.21655843
67.67591,0.206113621
67.753445,0.191868032
67.805135,0.183213898
67.856825,0.175161176
67.93436,0.16409211
68.011895,0.154095529
68.08943,0.14503702
68.166965,0.136802594
68.2445,0.12929507
68.322035,0.122431188
68.39957,0.116139281
68.50295,0.108533925
68.55464,0.105031731
68.65802,0.0985603898
68.70971,0.0955674786
68.81309,0.0900149636
68.86478,0.0874369684
68.96816,0.0826368357
69.01985,0.0804002846
69.149075,0.0752348759
69.2783,0.0706097396
69.38168,0.0672491223
69.53675,0.0627000712
69.64013,0.0599562506
69.7952,0.0562171869
69.89858,0.0539474959
70.05365,0.0508362871
70.15703,0.048937065
70.3121,0.0463200665
70.41548,0.0447145257
70.57055,0.0424918739
70.67393,0.0411221521
70.77731,0.0398337375
70.906535,0.0383279364
71.13914,0.0358781579
71.3762947,0.0336783828
71.60435,0.0318033545
71.836955,0.0300979282
71.992025,0.0290623525
72.27632,0.0273465309
72.48308,0.0262288302
72.68984,0.0252065326
72.8966,0.0242689433
73.10336,0.0234068282
73.31012,0.0226121806
73.51688,0.0218780307
73.82702,0.0208771236
74.03378,0.0202691809
74.24054,0.0197034665
74.55068,0.0189256591
74.75744,0.0184493932
75.17096,0.0175854001
75.58448,0.0168234945
75.998,0.0161477954
76.20476,0.0158381454
76.61828,0.015268324
77.228222,0.0145316906
77.65208,0.0140813146
78.127628,0.0136266651
78.68588,0.0131514111
79.0994,0.0128344122
79.735187,0.0123966362
80.381312,0.0120042118
80.815508,0.0117658852
81.249704,0.0115454068
81.94235,0.011226088
82.5600455,0.0109704756
83.2785365,0.0107026471
83.953091,0.0104760214
84.6586595,0.0102610888
85.829438,0.0099463683
87.3698,0.00959634001
88.289882,0.00941504299
90.243764,0.00908373922
91.505,0.00890108399
93.345164,0.00866884216
95.01992,0.00848598141
96.756704,0.00831938049
98.7416,0.00815234386
102.8768,0.00786581539
105.895496,0.00769657589
108.607365,0.00756675223
113.2148,0.00738501688
117.35,0.00725630495
122.519,0.00713404544
127.688,0.00705039446
130.863947,0.00701732808
136.032947,0.00699362765
139.802,0.00700101996
143.354,0.00702866499
148.3725,0.00710608675
151.615,0.00718345489
154.8575,0.00728583712
158.765,0.00744817229
162.09,0.007626316
164.423972,0.00777751744
167.62945,0.00802709212
170.07,0.00825563117
171.4,0.00839653221
173.8073,0.00868550305
175.7491,0.00895526341
176.72,0.00910419749
178.026725,0.00932118676
179.356725,0.00956356654
181.145575,0.00992841373
182.04,0.0101296266
184.035,0.0106304729
185.1522,0.0109465766
186.2694,0.011292016
187.3866,0.0116703084
188.9826,0.0122759173
190.02,0.0127166612
191.35,0.0133446819
192.4539,0.013927453
193.4913,0.0145335955
194.74815,0.0153554986
195.782225,0.0161148228
197.0025,0.0171239471
197.6675,0.0177329244
198.32585,0.0183821774
199.153775,0.0192715874
199.65585,0.0198547541
200.157925,0.0204743163
200.862825,0.0214115203
201.4713,0.0222904604
202.164562,0.0233803584
202.626737,0.0241649617
203.32,0.0254390448
203.985,0.0267838039
204.679437,0.0283340684
205.192758,0.0295883419
205.962739,0.0316671749
206.355725,0.0328307916
206.7647,0.034124124
207.31,0.0359929659
207.576,0.0369702468
208.0282,0.0387405526
208.3873,0.040252825
208.7331,0.041806873
209.172,0.043931267
209.438,0.0453092064
209.7173,0.0468360151
210.2493,0.0499937884
210.635,0.0525115037
210.901,0.0543726928
211.3,0.057375882
211.699,0.0606609814
212.098,0.0642644497
212.497,0.0682288434
212.896,0.072604083
213.295,0.0774490381
213.694,0.0828335243
213.96,0.0867634097
214.226,0.0909984206
214.625,0.0979952659
214.891,0.103145052
215.157,0.108734709
215.423,0.114815865
215.689,0.12144796
215.955,0.128699706
216.221,0.136650879
216.45375,0.144254676
216.753,0.155039716
216.9525,0.162941703
217.05225,0.167129074
217.25175,0.176019766
217.3515,0.180742163
217.551,0.190793864
217.65075,0.196146583
217.85025,0.207570856
218.0165,0.217893014
218.1495,0.226730317
218.2825,0.236130242
218.4155,0.246141632
218.5485,0.256818754
218.748,0.274216754
218.881,0.286838181
219.0805,0.307504486
219.2135,0.322573063
219.413,0.34738144
219.546,0.365573765
219.6125,0.37521937
219.7455,0.395710824
219.812,0.40660148
219.945,0.429796787
220.078,0.455064499
220.211,0.482659259
220.2775,0.497419691
220.4105,0.529072896
220.5435,0.563884185
220.6765,0.602288399
220.8095,0.644797898
220.9425,0.69201976
221.04225,0.730958818
221.10875,0.758789508
221.17525,0.788254142
221.24175,0.819483245
221.30825,0.852620641
221.37475,0.887825116
221.44125,0.92527232
221.50775,0.965156969
221.57425,1.00769538
221.64075,1.05312842
221.7405,1.12730205
221.84025,1.2096479
221.90675,1.26969128
221.97325,1.33434379
222.03975,1.40408968
222.10625,1.47947852
222.17275,1.56113604
222.23925,1.64977716
222.30575,1.74622169
222.37225,1.85141338
222.43875,1.96644303
222.50525,2.09257694
222.57175,2.23129183
222.605,2.30589664
222.6715,2.46682165
222.738,2.64525237
222.77125,2.74183673
222.821125,2.89696837
222.854375,3.00783892
222.887625,3.12521318
222.920875,3.24960984
222.97075,3.45063791
223.004,3.59522244
223.03725,3.7491057
223.0705,3.91310223
223.120375,4.18006856
223.153625,4.37354127
223.2035,4.68997913
223.23675,4.92043351
223.286625,5.29935566
223.319875,5.57684456
223.3365,5.72384144
223.36975,6.03583613
223.403,6.3740707
223.419625,6.55395649
223.452875,6.9373589
223.4695,7.14180576
223.50275,7.57878182
223.519375,7.81246742
223.552625,8.31347044
223.56925,8.5822396
223.6025,9.16039829
223.619125,9.47163008
223.644062,9.96906954
223.669,10.5067294
223.692275,11.0487482
223.720538,11.7651803
223.745475,12.4567595
223.772075,13.2637905
223.800338,14.2101875
223.8286,15.2614444
223.856031,16.39723
223.870162,17.0323785
223.885125,17.7458823
223.898425,18.4183433
223.913387,19.2214691
223.92835,20.0781557
223.943312,20.9932574
223.958275,21.972189
223.9749,23.1421412
223.991525,24.4077624
224.00815,25.7797294
224.024775,27.2702441
224.0414,28.8933008
224.058025,30.6650105
224.07465,32.6039944
224.091275,34.7318651
224.10125,36.109565
224.111225,37.5704112
224.12785,40.2086621
224.137825,41.9263365
224.1478,43.7557006
224.157775,45.706575
224.16775,47.7898748
224.177725,50.0177575
224.1877,52.4037954
224.197675,54.9631754
224.20765,57.7129329
224.217625,60.6722248
224.2276,63.8626515
224.237575,67.3086349
224.250875,72.34921
224.26085,76.5058414
224.2675,79.4764825
224.27415,82.621128
224.284125,87.6945741
224.290775,91.3369221
224.297425,95.2072685
224.304075,99.3246999
224.310725,103.710303
224.317375,108.387412
224.324025,113.381901
224.330675,118.722508
224.337325,124.441217
224.343975,130.573695
224.350625,137.159793
224.357275,144.244132
224.363925,151.87678
224.370575,160.114036
224.3739,164.478911
224.38055,173.744554
224.3872,183.78919
224.392187,191.885413
224.397175,200.508844
224.405487,216.176595
224.408813,222.940879
224.4138,233.672262
224.417125,241.243444
224.422112,253.275909
224.4271,266.185536
224.432088,280.054404
224.435412,289.87782
224.4404,305.552852
224.445387,322.453155
224.450375,340.699511
224.455362,360.426246
224.46035,381.782737
224.465337,404.935009
224.468662,421.457744
224.471988,438.919614
224.476975,467.013747
224.4803,487.111585
224.483625,508.390885
224.488612,542.700682
224.491938,567.292753
224.495262,593.366159
224.50025,635.465372
224.503575,665.671998
224.5069,697.713608
224.510225,731.697845
224.51355,767.733095
224.516875,805.926573
224.5202,846.381807
224.523525,889.195395
224.528512,958.020612
224.5335,1032.5549
224.53882,1118.4383
224.54414,1210.75202
224.54946,1308.97071
