energy [eV],cross section [b]
1e-05,1869.12105
1.06546422e-05,1810.78962
1.13092844e-05,1757.5993
1.19639266e-05,1708.83672
1.26185688e-05,1663.9198
1.3857666e-05,1587.78758
1.46837308e-05,1542.47894
1.55097955e-05,1500.84008
1.69652035e-05,1435.0199
1.85287667e-05,1373.13808
2.009233e-05,1318.6281
2.20653231e-05,1258.29462
2.33806518e-05,1222.3883
2.53536449e-05,1173.86269
2.70134015e-05,1137.22886
2.95030365e-05,1088.18858
3.11627931e-05,1058.81319
3.3039859e-05,1028.29671
3.51342343e-05,997.177114
3.72286096e-05,968.721974
3.93229849e-05,942.571559
4.16915735e-05,915.405333
4.56557764e-05,874.761649
4.96199792e-05,839.091518
5.42762179e-05,802.292725
5.92784745e-05,767.695789
6.42807312e-05,737.220305
6.84888191e-05,714.213202
7.48009511e-05,683.414493
8.11130831e-05,656.284762
8.64230879e-05,635.803497
9.17330926e-05,617.127373
9.70430974e-05,600.005912
0.000102353102,584.234737
0.000109053568,566.00201
0.000115754034,549.376248
0.0001224545,534.134469
0.000133382481,511.78628
0.000146065025,489.063193
0.000158747569,469.120725
0.00017364412,448.547246
0.000184313157,435.371624
0.000200316712,417.618546
0.000219114028,399.303733
0.000232576826,387.574602
0.000246039624,376.821844
0.000259502421,366.917104
0.000276490545,355.466442
0.000293478669,345.025
0.000310466793,335.452739
0.000327454916,326.635397
0.000359609788,311.690391
0.000381046369,302.796158
0.00040248295,294.622315
0.000440251137,281.701609
0.000480825983,269.554018
0.000521400829,258.853546
0.000555533928,250.775356
0.000606733576,239.961403
0.000657933225,230.435696
0.000701004311,223.244381
0.000744075396,216.686885
0.000787146482,210.675258
0.000830217568,205.137742
0.000884567114,198.735939
0.000966091434,190.1661
0.00102044098,185.032725
0.00108190643,179.699947
0.00118477845,171.721528
0.00128765047,164.719434
0.001408481,157.49579
0.00153829077,150.704383
0.00166810054,144.72203
0.00177730144,140.205729
0.00194110279,134.159944
0.00205030369,130.538491
0.0021738021,126.776369
0.00231159801,122.939898
0.00244939392,119.431912
0.00258718983,116.20806
0.00274302714,112.858983
0.00300384522,107.848405
0.00317772393,104.856486
0.00335160265,102.100531
0.00368071773,97.4293193
0.00400983282,93.3457301
0.00436767492,89.4405057
0.00478297105,85.4697875
0.00519826719,81.9849814
0.00551138066,79.6223483
0.00586074352,77.2130301
0.0063847878,73.9769415
0.00673415066,72.0327442
0.00717499658,69.7851083
0.00761584251,67.735581
0.00805668843,65.8566727
0.00849753436,64.1259537
0.00905381882,62.1251169
0.00988824552,59.4466962
0.0107226722,57.0873726
0.0117755993,54.476023
0.0128285264,52.1931913
0.0139733588,50.0100895
0.014859121,48.4971219
0.0161877643,46.4649872
0.017632379,44.5216368
0.0187500841,43.1748297
0.0198677892,41.9433521
0.0209854943,40.8116329
0.0224832602,39.429523
0.0234221735,38.6315674
0.0243610867,37.8802081
0.0262429412,36.4975718
0.028965585,34.741045
0.0316351389,33.2439556
0.0343046929,31.9252522
0.0376732878,30.4657186
0.0410418828,29.1898348
0.0447045077,27.9697249
0.0475382976,27.1241674
0.0503720874,26.3510322
0.0546227722,25.3062214
0.0581986094,24.5174903
0.0635623652,23.4617018
0.0671382024,22.8293122
0.0711822184,22.1723869
0.0779505107,21.1896157
0.0824627055,20.6028204
0.0869749003,20.0623316
0.0955155164,19.1462962
0.104056132,18.3455724
0.113342222,17.5799002
0.124119257,16.8014756
0.134896292,16.1183934
0.143021662,15.6553265
0.152087713,15.1831557
0.165686789,14.5490382
0.17475284,14.1681187
0.186192898,13.727799
0.197632957,13.3263419
0.209073015,12.9583534
0.220513074,12.6194325
0.234948791,12.2276733
0.256602365,11.7033524
0.27825594,11.2416121
0.305579653,10.7306915
0.332903365,10.2841877
0.362612045,9.8573308
0.385597788,9.56159452
0.420076403,9.16450954
0.457564505,8.78493226
0.486569223,8.52197515
0.515573941,8.28161726
0.559081018,7.95692821
0.595680821,7.71192863
0.632280625,7.48862278
0.668880428,7.2839979
0.705480231,7.09559599
0.774755801,6.77647022
0.844031372,6.49772916
0.919353704,6.23140318
1.00676956,5.96088655
1.09418541,5.72373653
1.19686157,5.47937924
1.2703991,5.32306726
1.3807054,5.11269922
1.46387108,4.97025444
1.55666493,4.82516264
1.69585569,4.63057922
1.78864953,4.51385878
1.90574208,4.37911184
2.02283462,4.25643758
2.13992717,4.1441568
2.33089674,3.97987645
2.55252779,3.81332649
2.70028183,3.7141418
2.84803587,3.62297612
3.12770254,3.46893755
3.40736921,3.33484429
3.71144677,3.20718462
3.94671298,3.11908951
4.18197919,3.03884288
4.53487851,2.93091592
4.83060888,2.85018298
5.12633925,2.77691861
5.42206963,2.71008613
5.72236766,2.64793363
6.096978,2.57738004
6.47158834,2.51350845
6.84619868,2.45538909
7.22080902,2.40226396
7.92986597,2.31324569
8.40257061,2.26096961
8.87527524,2.2134573
9.69819567,2.14035536
10.5780478,2.07334963
11.49757,2.01326687
12.6265891,1.95068128
13.3792686,1.91461088
14.5082878,1.86752689
15.8531439,1.82059794
17.198,1.78182706
18.3073828,1.754969
19.4650621,1.73116669
21.7804207,1.69442796
23.7984099,1.67221838
25.1926356,1.66136926
27.2839743,1.65109195
28.9143653,1.647555
30.467473,1.64750083
33.1013577,1.65421475
35.6010489,1.66796095
38.4710989,1.69212707
41.593425,1.72835254
44.463475,1.77084634
47.5922192,1.82758505
50.9210875,1.90068552
53.7911375,1.97521482
56.6611875,2.06156477
59.4094791,2.15664668
62.4012875,2.27580586
63.8363125,2.33944877
65.98885,2.44373043
67.423875,2.51968216
68.8589,2.60127988
70.293925,2.68901205
72.2735176,2.82113101
74.599,2.99485327
76.034025,3.11334654
77.46905,3.24151337
78.904075,3.38036669
80.3391,3.53106121
81.774125,3.69491759
83.20915,3.87345168
84.644175,4.06840982
86.0792,4.28181203
87.514225,4.51600486
88.94925,4.77372664
90.384275,5.05818851
91.8193,5.37317567
93.2603347,5.72472145
93.9748423,5.91375393
94.976355,6.19699577
96.41138,6.64438018
96.98539,6.83858696
98.13341,7.25636581
98.70742,7.48127032
99.568435,7.84074562
100.42945,8.2293055
101.290465,8.65017414
102.15148,9.10703636
103.012495,9.60411881
103.87351,10.1462882
104.734525,10.7391712
105.59554,11.3893007
106.456555,12.1042968
107.31757,12.8930902
108.178585,13.7662016
109.0396,14.7360928
109.900615,15.8176103
110.76163,17.0285522
111.33564,17.9181776
111.90965,18.8822363
112.196655,19.394795
112.770665,20.4868657
113.344675,21.677087
113.918685,22.9775401
114.492695,24.4022104
115.066705,25.9673559
115.640715,27.6919603
115.92772,28.6208727
116.358227,30.10625
116.932237,32.2772133
117.506248,34.6959371
117.808975,36.0842047
118.080258,37.4011956
118.367262,38.8754688
118.79777,41.2575084
119.084775,42.9702699
119.37178,44.7926297
119.658785,46.7339949
120.089292,49.8922736
120.376297,52.1792636
120.806805,55.915883
121.09381,58.6337229
121.524317,63.0953218
121.811323,66.3563386
121.954825,68.0815097
122.24183,71.7374491
122.385333,73.6753397
122.672337,77.7904845
122.81584,79.9763049
123.102845,84.6279808
123.246347,87.1041909
123.533353,92.3858806
123.676855,95.2039391
123.96386,101.229221
124.107362,104.451798
124.394368,111.359326
124.681373,118.947229
124.968378,127.302073
125.255382,136.523378
125.470636,144.07624
125.68589,152.235158
125.972895,164.162324
126.116398,170.620662
126.2599,177.438398
126.403402,184.639682
126.546905,192.250354
126.690407,200.298029
126.83391,208.812176
126.977412,217.824177
127.120915,227.367374
127.264418,237.477089
127.40792,248.190602
127.551423,259.547084
127.694925,271.587467
127.838427,284.354227
127.98193,297.89106
128.125432,312.242421
128.340686,335.394082
128.55594,360.62495
128.771194,388.068539
128.986447,417.832672
129.244752,456.698986
129.474356,494.113767
129.70396,534.069437
129.933564,576.223541
130.679777,719.209692
130.909381,760.328675
131.081584,788.375207
131.196386,805.267936
131.311188,820.420817
131.42599,833.591463
131.540792,844.556931
131.655594,853.122401
131.770396,859.12933
131.885198,862.462454
131.98852,863.120004
132.172203,858.787542
132.287005,852.578402
132.401807,843.80211
132.516609,832.615092
132.631411,819.210859
132.746213,803.811919
132.861015,786.661087
133.033218,758.207659
133.262822,716.520439
133.951634,582.678868
134.181238,539.572123
134.410842,498.599872
134.640446,460.164564
134.87005,424.463525
135.085304,393.520708
135.300558,364.979011
135.515811,338.740943
135.659314,322.465359
135.802816,307.112896
135.946319,292.638361
136.089821,278.995813
136.233324,266.139443
136.376826,254.02423
136.520329,242.60642
136.663831,231.843862
136.807334,221.696236
136.950836,212.125188
137.16609,198.770812
137.309593,190.486799
137.453095,182.661179
137.668349,171.718713
137.811851,164.915085
137.955354,158.475422
138.170608,149.4483
138.385861,141.117117
138.601115,133.417646
138.88812,124.035421
139.031622,119.688768
139.318627,111.616495
139.46213,107.866467
139.749135,100.883688
139.892637,97.6311569
140.179642,91.559209
140.323145,88.7237004
140.61015,83.4172568
140.753652,80.9331733
141.040658,76.2735065
141.327662,71.9897494
141.471165,69.9767753
141.75817,66.1870526
142.045175,62.6864937
142.188677,61.0358275
142.475683,57.9178554
142.762687,55.0253021
143.049692,52.3375168
143.4802,48.6500745
143.767205,46.3979539
144.05421,44.2943053
144.341215,42.3266412
144.62822,40.483733
144.915225,38.7554651
145.20223,37.1327076
145.489235,35.6072054
145.77624,34.1714815
146.063245,32.818752
146.493752,30.9319387
146.780757,29.7609168
147.067763,28.6536075
147.49827,27.1024392
148.07228,25.2186009
148.496826,23.9461372
148.933295,22.73365
149.507305,21.2715361
150.081315,19.9432467
150.36832,19.324306
150.94233,18.1681178
151.229335,17.6277539
151.803345,16.6154994
152.09035,16.1410989
152.66436,15.2500993
152.951365,14.8314615
153.525375,14.0433004
154.099385,13.3151482
154.38639,12.9717111
154.9604,12.3227787
155.821415,11.4353834
156.395425,10.8950174
157.25644,10.1522806
157.83045,9.69776736
158.40446,9.27255111
158.97847,8.8741933
159.839485,8.32228206
160.413495,7.98195079
160.987505,7.6617048
161.561515,7.36001065
162.135525,7.07547755
162.709535,6.80684186
163.283545,6.55295342
163.857555,6.31276358
164.71857,5.97609147
165.86659,5.56686541
167.01461,5.19762194
168.16263,4.8633689
169.31065,4.55986538
170.171665,4.35021869
171.319685,4.09212702
172.1807,3.91311897
173.615725,3.63947981
174.333237,3.5131507
175.768262,3.27920043
177.203287,3.06757793
177.9208,2.96927209
179.355825,2.78616334
180.79085,2.61930346
181.508363,2.54137958
182.943388,2.39551269
184.378412,2.26174182
185.813437,2.13878085
187.381742,2.01544485
188.896186,1.90613563
190.118513,1.82423314
191.553538,1.73461191
192.988563,1.65141426
194.423587,1.5740481
195.858612,1.50198753
197.293637,1.43476424
198.728662,1.37196012
200.163687,1.31320093
202.316225,1.23192143
203.75125,1.18187884
205.186275,1.13484579
207.338813,1.06943433
208.773838,1.02895098
210.208863,0.990751038
212.3614,0.937372669
215.23145,0.872760243
216.666475,0.842976591
219.536525,0.787898913
220.97155,0.762409605
223.124087,0.726492741
225.276625,0.693125466
228.146675,0.65220312
229.5817,0.633134063
232.45175,0.597511684
233.886775,0.580862371
236.448941,0.552890598
239.90866,0.518356614
243.93195,0.482309131
248.237025,0.447965963
251.107075,0.427191215
255.41215,0.398810721
258.2822,0.381545077
261.15225,0.365463509
264.0223,0.350461065
268.327375,0.329778568
271.197425,0.317085331
274.067475,0.305183885
276.937525,0.294010127
281.2426,0.278489009
284.11265,0.26889362
289.85275,0.251307287
295.543762,0.235732995
301.33295,0.221530059
307.07305,0.208862926
312.81315,0.197422542
318.55325,0.187055164
324.29335,0.17763024
330.03345,0.169036352
335.77355,0.161177972
341.51365,0.153972831
347.25375,0.147349783
355.8639,0.138373722
361.604,0.132952706
367.3441,0.127929791
376.493581,0.120652229
380.52899,0.117697549
387.43445,0.112964946
396.0446,0.107578551
407.5248,0.101167435
416.13495,0.096858304
427.61515,0.09168262
436.2253,0.0881738371
444.83545,0.0849451829
457.750675,0.0805621346
470.6659,0.0766558286
481.483608,0.0736993362
499.3664,0.0693474451
516.5867,0.0656877131
528.0669,0.0634921969
539.5471,0.0614665983
556.7674,0.0587070756
568.2476,0.057030782
579.7278,0.0554697967
602.6882,0.0526498234
625.6486,0.0501720536
637.1288,0.0490426874
660.0892,0.0469725061
683.0496,0.045120442
706.01,0.0434534805
728.9704,0.04194488
756.463328,0.0403164341
774.6625,0.0393311118
806.1875,0.0377745825
853.475,0.0357394792
897.52,0.034106164
935.08,0.0328759036
969.854228,0.0318491532
1010.2,0.0307737403
1060.28,0.0295864633
1110.36,0.0285378861
1155.432,0.0276960011
1204.50354,0.0268765257
1247.77952,0.0262336131
1280.632,0.0258017117
1308.176,0.0254984103
1326.7056,0.0253614391
1340.728,0.0253554663
1350.744,0.0254938821
1354.7504,0.025626049
1357.7552,0.0257787816
1360.76,0.0260033571
1362.7632,0.0262124153
1364.7664,0.0264910621
1366.7696,0.0268700684
1368.7728,0.0273993243
1369.7744,0.0277448119
1370.776,0.0281640843
1371.7776,0.0286789536
1372.2784,0.0289813244
1373.28,0.0297006813
1374.0312,0.0303669281
1374.7824,0.0311758532
1375.2832,0.0318151046
1376.0344,0.032966292
1376.5352,0.0338952662
1377.036,0.0349889142
1377.5368,0.0362882965
1377.9124,0.0374300887
1378.1628,0.0382869078
1378.4132,0.0392325269
1378.6636,0.040279603
1378.914,0.0414431302
1379.1644,0.0427409767
1379.54,0.0449876582
1379.7904,0.0467250911
1379.9156,0.0476781161
1380.166,0.0497781452
1380.2912,0.0509370439
1380.5416,0.0535077328
1380.7294,0.0556903204
1380.9172,0.058129003
1381.105,0.0608653814
1381.2928,0.0639498498
1381.4806,0.0674439217
1381.6684,0.0714233047
1381.8562,0.0759820151
1381.9188,0.0776498807
1382.044,0.0812379499
1382.1066,0.0831696015
1382.2318,0.0873405411
1382.31944,0.0905301456
1382.39456,0.0934610604
1382.50724,0.0982365565
1382.59488,0.102301571
1382.69504,0.107371831
1382.7952,0.11295307
1382.89536,0.119116124
1382.99552,0.125944504
1383.09568,0.133537218
1383.19584,0.142012333
1383.296,0.151511544
1383.37112,0.159409693
1383.4212,0.165089921
1383.47128,0.171135046
1383.52136,0.177576868
1383.57144,0.184450711
1383.62152,0.191795901
1383.6716,0.199656322
1383.72168,0.208081059
1383.77176,0.217125152
1383.82184,0.22685048
1383.87192,0.2373268
1383.922,0.248632973
1383.99712,0.267347124
1384.0472,0.281146587
1384.1098,0.300101383
1384.1724,0.321217925
1384.22248,0.339892956
1384.27256,0.360370943
1384.2976,0.371358742
1384.34768,0.394998352
1384.39776,0.421111628
1384.4228,0.435203901
1384.47288,0.465709553
1384.49792,0.482236457
1384.53548,0.508799465
1384.57304,0.537709218
1384.6106,0.569246023
1384.64816,0.603732552
1384.68572,0.641541608
1384.72328,0.683105553
1384.76084,0.728927813
1384.7984,0.779596987
1384.83596,0.835804222
1384.87352,0.898364709
1384.89856,0.944071143
1384.9236,0.993356858
1384.93612,1.01945627
1384.96116,1.07482219
1384.9862,1.13478776
1385.01124,1.19985738
1385.02376,1.23448212
1385.0488,1.30830484
1385.07384,1.38881308
1385.09888,1.47679902
1385.12392,1.57316829
1385.14896,1.67895829
1385.174,1.79535959
1385.19904,1.92374072
1385.22408,2.06567677
1385.2366,2.14228458
1385.25538,2.26494836
1385.2679,2.35229352
1385.28668,2.49241658
1385.2992,2.59238047
1385.31798,2.75304331
1385.3305,2.86786445
1385.34928,3.05272317
1385.3618,3.18504937
1385.38058,3.39840831
1385.3931,3.55133809
1385.41188,3.79819354
1385.43066,4.06782664
1385.44944,4.36240054
1385.46822,4.68416216
1385.48074,4.91489571
1385.49326,5.15937975
1385.51204,5.55324203
1385.52456,5.83471093
1385.53708,6.13181447
1385.55962,6.70681702
1385.56963,6.97900049
1385.58966,7.55316301
1385.59968,7.85433916
1385.61971,8.4814498
1385.68982,10.783012
1385.70986,11.3926395
1385.72488,11.8057084
1385.7349,12.0529388
1385.74491,12.2732648
1385.75493,12.4631366
1385.76494,12.6193329
1385.77496,12.7390886
1385.78498,12.8202125
1385.8,12.8663406
1385.81002,12.8458686
1385.82003,12.7847592
1385.83005,12.6841676
1385.84006,12.5459593
1385.85008,12.3726255
1385.8601,12.1671744
1385.87011,11.9330073
1385.88013,11.673789
1385.89515,11.2463099
1385.91518,10.6239745
1385.97027,8.806335
1386.00032,7.85540377
1386.02035,7.26230794
1386.04038,6.70791505
1386.06292,6.13291585
1386.0817,5.69314426
1386.10048,5.28806538
1386.113,5.0364613
1386.13178,4.68523116
1386.1443,4.46757994
1386.16308,4.16417878
1386.1756,3.97631643
1386.18812,3.79921067
1386.20064,3.6322254
1386.21316,3.47474889
1386.22568,3.32619672
1386.2382,3.18601353
1386.25072,3.05367378
1386.26324,2.92868194
1386.27576,2.81057204
1386.28828,2.69890693
1386.3008,2.59327722
1386.31332,2.49330011
1386.32584,2.39861807
1386.33836,2.30889743
1386.35088,2.22382706
1386.37592,2.06649681
1386.40096,1.92453675
1386.41348,1.85874379
1386.43852,1.73651313
1386.46356,1.62555496
1386.4886,1.52459307
1386.50112,1.4775077
1386.52616,1.38950206
1386.53868,1.34835565
1386.56372,1.27126423
1386.57624,1.23513406
1386.60128,1.16728507
1386.6138,1.1354139
1386.63884,1.075432
1386.65136,1.0471953
1386.6764,0.993943405
1386.68892,0.968823512
1386.71396,0.921356715
1386.75152,0.856451546
1386.77656,0.816936617
1386.81412,0.76264067
1386.83916,0.729428224
1386.87672,0.683588956
1386.90176,0.655428344
1386.93932,0.616403415
1386.96436,0.59233454
1387.00192,0.558855786
1387.02696,0.538133015
1387.052,0.51857725
1387.07704,0.50010361
1387.12712,0.466099794
1387.1772,0.435578882
1387.22728,0.408085684
1387.27736,0.383236286
1387.32744,0.360705193
1387.37752,0.340215078
1387.4276,0.321528544
1387.47768,0.304441477
1387.52776,0.288777636
1387.5528,0.281430869
1387.60288,0.267621731
1387.65296,0.254890108
1387.72808,0.237579054
1387.8032,0.222138457
1387.87832,0.208309453
1387.9284,0.199877379
1387.97848,0.192009895
1388.0536,0.181161306
1388.12872,0.171329332
1388.20384,0.162391229
1388.27896,0.154242174
1388.35408,0.146792223
1388.45424,0.137813996
1388.50432,0.13368997
1388.60448,0.126087647
1388.65456,0.12257989
1388.75472,0.116086628
1388.8048,0.113078445
1388.90496,0.107488956
1388.95504,0.104889967
1389.0552,0.100044265
1389.13032,0.0966910202
1389.20544,0.0935555378
1389.28056,0.0906193878
1389.3682,0.0874238639
1389.4934,0.0832447933
1389.6186,0.0794674384
1389.7438,0.0760419597
1389.869,0.0729260047
1389.9942,0.0700833996
1390.1194,0.0674830992
1390.2446,0.0650983394
1390.3698,0.0629059488
1390.495,0.0608857852
1390.6202,0.0590202731
1390.7454,0.0572940216
1390.8706,0.0556935062
1391.0584,0.05350279
1391.1836,0.0521674187
1391.434,0.0497577471
1391.6844,0.047647927
1391.9348,0.0457901639
1392.06,0.0449434297
1392.3104,0.04339359
1392.5608,0.0420120766
1392.8112,0.0407753346
1393.0616,0.0396637883
1393.4372,0.0381961099
1393.6876,0.0373314429
1394.0632,0.03617815
1394.3136,0.0354921945
1394.8144,0.0342868854
1395.0648,0.0337557624
1395.5656,0.0328126878
1396.3168,0.0316409179
1397.068,0.0306937782
1397.8192,0.0299169686
1398.32,0.0294740756
1399.3216,0.0287294812
1400.3232,0.0281312971
1401.3248,0.0276430247
1402.3264,0.0272388706
1403.8288,0.0267509548
1404.8304,0.0264858126
1406.8336,0.0260602477
1409.8384,0.0256008546
1413.8448,0.0251881949
1418.8528,0.0248487749
1426.8656,0.0245067621
1434.8784,0.0242830116
1447.49856,0.0240366146
1463.424,0.0238078343
1508.79648,0.0233255993
1566.088,0.0228436176
1636.2,0.0223506443
1736.36,0.0217844546
1786.44,0.0215546835
1873.7392,0.0212322363
1974.6044,0.020977729
2065.38308,0.020857842
2146.07524,0.0208599343
2176.3348,0.0209107552
2199.02947,0.0209966426
2211.63762,0.0210848465
2221.82501,0.0212012608
2229.79336,0.021346283
2237.86257,0.0215879474
2243.91448,0.0218922539
2245.93179,0.0220342229
2248.95774,0.0223061128
2250.47072,0.0224775726
2252.99235,0.0228373329
2255.00966,0.0232170571
2256.01831,0.023448639
2258.03561,0.0240257698
2259.04426,0.0243888063
2260.05292,0.0248175792
2261.06157,0.025329023
2262.07022,0.0259458982
2263.07887,0.0266993722
2263.5832,0.0271403183
2264.33969,0.0279013908
2265.09618,0.0288093817
2265.85266,0.0299047266
2266.35699,0.0307655762
2266.86132,0.0317553059
2267.11348,0.0323066971
2267.61781,0.033542777
2267.86997,0.0342372335
2268.24821,0.0353908827
2268.62646,0.0367003733
2268.87862,0.0376741799
2269.13078,0.0387405774
2269.38295,0.0399116854
2269.63511,0.0412016721
2269.88727,0.0426271847
2270.13944,0.0442078882
2270.3916,0.0459671462
