energy [eV],cross section [b]
1e-05,667.63709
1.05943698e-05,648.638754
1.14859244e-05,622.956153
1.20802942e-05,607.437644
1.27453191e-05,591.377916
1.3848839e-05,567.327424
1.53201989e-05,539.39667
1.66860784e-05,516.848577
1.80519579e-05,496.910657
1.95260823e-05,477.785439
2.12166968e-05,458.354591
2.29073113e-05,441.116613
2.41683676e-05,429.454162
2.5563404e-05,417.571774
2.76559585e-05,401.463551
2.99143465e-05,386.011926
3.16410499e-05,375.331524
3.33677532e-05,365.491268
3.50944565e-05,356.386488
3.70264199e-05,346.964172
3.91636434e-05,337.364167
4.23694785e-05,324.350029
4.4506702e-05,316.466538
4.71520458e-05,307.461143
5.11200616e-05,295.287341
5.50880774e-05,284.453781
5.99994807e-05,272.562924
6.32737495e-05,265.417005
6.81851527e-05,255.679335
7.22378721e-05,248.403706
7.83169512e-05,238.568261
8.43960303e-05,229.815624
8.94122753e-05,223.275975
9.44285203e-05,217.264606
9.94447652e-05,211.71402
0.00010446101,206.568206
0.000110669857,200.690088
0.000116878704,195.286811
0.00012308755,190.297706
0.000133138891,182.973487
0.000144666371,175.532223
0.000156193852,168.930745
0.000169548422,162.141359
0.000183816537,155.721441
0.000198084652,150.008308
0.000209858205,145.739664
0.000221631758,141.815847
0.000239292088,136.482389
0.00025246521,132.874008
0.000267037901,129.197578
0.000281610591,125.810346
0.000296183282,122.67628
0.000312488286,119.432912
0.000330525603,116.128379
0.000348562921,113.083789
0.000366600238,110.266757
0.000397944549,105.835103
0.000431433027,101.644614
0.000464921505,97.9154667
0.000506371799,93.8223748
0.000547822093,90.2031007
0.000592557293,86.7313547
0.000626760636,84.3316306
0.000660963979,82.1206746
0.000712268994,79.107828
0.00075460411,76.85674
0.000796939226,74.7874978
0.000881609459,71.1055679
0.000960209761,68.1332001
0.00101260996,66.3469289
0.00106501016,64.6941668
0.00112363939,62.9837638
0.00118849763,61.2411057
0.00128578499,58.8786917
0.0013907823,56.6125743
0.00151119953,54.3102441
0.00163161676,52.2677445
0.00172143789,50.8858803
0.001820802,49.4779568
0.00196984817,47.569322
0.00213070615,45.7384873
0.00225369388,44.4729867
0.0023766816,43.3070338
0.00249966932,42.2282266
0.00263727709,41.1117957
0.00278950489,39.9743113
0.00301784658,38.4322944
0.00317007438,37.4981974
0.00335849402,36.431169
0.00364112348,34.9887246
0.00392375295,33.7050836
0.00427357697,32.2961676
0.00450679299,31.4494675
0.00485661701,30.2956791
0.00514527965,29.4336118
0.0055782736,28.2682411
0.00601126756,27.2311703
0.00636855913,26.4563101
0.00672585071,25.7440449
0.00708314229,25.086377
0.00744043386,24.4766698
0.00788267076,23.7801956
0.00832490766,23.1399843
0.00876714457,22.5488474
0.00920938147,22.0008194
0.00975675927,21.3748023
0.010577826,20.5285329
0.0113988927,19.7754335
0.0124151663,18.9488381
0.0134314399,18.2179322
0.0145282524,17.5168217
0.0153668461,17.032205
0.0166247366,16.3752422
0.0179823141,15.7450611
0.0190202817,15.309472
0.0200582492,14.9081487
0.0216152006,14.3612721
0.0234576003,13.7858484
0.0260270847,13.087791
0.0283443564,12.5414937
0.0299345433,12.2038993
0.0315247303,11.8921838
0.0340990426,11.4345754
0.0370514185,10.9696586
0.0400037944,10.5572143
0.0434241177,10.1330346
0.0458603158,9.86030014
0.0495146129,9.48958906
0.053748111,9.10833102
0.0567635101,8.86319451
0.0627943082,8.42701465
0.0665266121,8.18731968
0.070258916,7.96699037
0.0777235238,7.57495227
0.0846530008,7.25847346
0.0892726521,7.06828644
0.0938923035,6.8923171
0.101920093,6.61549448
0.110497039,6.35374363
0.119073984,6.12081644
0.129690081,5.86516523
0.136767479,5.71153402
0.147383575,5.50218871
0.15614361,5.34577882
0.169283661,5.13434654
0.178043695,5.0065951
0.18784507,4.87439249
0.198687784,4.73970154
0.209530498,4.61561035
0.220373212,4.50079823
0.232504842,4.38198669
0.252635663,4.20406848
0.279476756,3.99746198
0.304393637,3.83068656
0.329310517,3.68322985
0.356202043,3.54179643
0.38704286,3.39811721
0.417883677,3.27066661
0.440888335,3.1844473
0.466337106,3.09660944
0.504510263,2.97754617
0.529959034,2.90543004
0.561458197,2.82305919
0.59295736,2.74735069
0.624456524,2.67745309
0.655955687,2.61265988
0.69494371,2.53865503
0.733931734,2.47063769
0.772919758,2.40784262
0.836036453,2.31567324
0.90842247,2.22205328
0.980808487,2.13902009
1.06466759,2.05379249
1.15426323,1.97329173
1.24385887,1.90169861
1.31779008,1.84823832
1.39172129,1.79912311
1.50261811,1.73240865
1.58533782,1.68730579
1.67684602,1.64138313
1.85986243,1.5600117
1.96224857,1.51958855
2.07551266,1.47843954
2.30204084,1.40555176
2.49886527,1.35054636
2.63905765,1.31523238
2.77925004,1.28266669
3.00206865,1.2357595
3.24994731,1.18945832
3.5804522,1.1355224
3.82831129,1.09984877
4.04308882,1.07169574
4.36525511,1.03353727
4.60556409,1.00780051
5.13724495,0.957380809
5.70052733,0.911336295
6.02957077,0.887537059
6.35861421,0.865650411
7.05581579,0.824561932
7.66672504,0.793388798
8.4812707,0.757341374
9.23742235,0.728383668
9.99357399,0.702902827
10.8096501,0.678790492
11.4336002,0.662222862
12.3695253,0.639909387
13.6509968,0.613420768
14.3085182,0.601341253
15.853104,0.576243084
17.038551,0.559571716
17.9944549,0.547482348
19.9062628,0.526301579
21.0894309,0.51486936
22.272599,0.504510255
24.6389352,0.48648686
26.9097362,0.471949401
29.0817302,0.460071176
32.3094276,0.444152112
35.9347017,0.429026901
38.7285588,0.419249708
41.4627565,0.41097635
44.968712,0.401934645
47.9794892,0.395356903
51.7528876,0.388417338
54.7912807,0.383737388
60.8128351,0.376465585
65.7416368,0.372157558
69.6329176,0.369667295
75.8391053,0.367147537
81.8606597,0.366213006
88.5962105,0.366738039
97.0930449,0.369554791
107.226162,0.375383149
114.979209,0.381802675
121.000763,0.388062672
129.871349,0.399397979
136.05465,0.408878392
145.086981,0.425274481
154.119313,0.44504818
162.105889,0.465760012
169.046711,0.486595499
172.183976,0.496984596
177.00122,0.514240422
184.227085,0.543431139
189.044328,0.565397274
192.657261,0.583360213
196.270194,0.602732215
199.883126,0.623650141
203.496059,0.645998028
206.923756,0.668923499
209.332378,0.686134633
213.130546,0.715301228
216.743479,0.745581507
220.356412,0.778626992
223.969344,0.814769908
227.582277,0.854394977
231.195209,0.89794962
234.808142,0.945956548
238.421075,0.999029404
242.034007,1.05789232
245.64694,1.12340454
249.259873,1.19659167
252.872805,1.27868567
254.903039,1.32927192
256.554883,1.37305925
258.137583,1.41740796
260.098671,1.47587896
262.507292,1.55354511
264.915914,1.63840376
266.120225,1.68380892
268.528847,1.78120594
270.937469,1.8883539
273.34609,2.00658813
275.152557,2.1034735
277.561179,2.24505628
279.367645,2.36169795
281.776267,2.53313315
282.980578,2.62647158
284.184888,2.72542937
285.389199,2.83046109
286.59351,2.9420675
287.797821,3.06080115
289.002132,3.18727286
290.206443,3.32215901
291.410754,3.46621002
292.615065,3.62026001
293.819375,3.78523791
295.023686,3.96218037
296.227997,4.15224654
297.432308,4.3567353
298.636619,4.57710515
299.84093,4.81499742
300.443085,4.94108391
301.647396,5.20880464
302.851707,5.49913907
303.453863,5.65356255
304.658173,5.98265735
305.862484,6.34134121
306.46464,6.53285156
307.668951,6.94261831
308.873262,7.39166132
309.475417,7.63241279
310.679728,8.14976174
311.281883,8.42786162
312.486194,9.02708454
313.389427,9.5178291
314.292661,10.0478946
315.195894,10.6212116
316.099127,11.2421452
317.00236,11.9155378
317.905593,12.6467529
318.841229,13.4714995
319.410982,14.0103024
320.013137,14.6121939
320.91637,15.5823489
321.518526,16.2774477
322.120681,17.0141258
323.023914,18.2028665
323.62607,19.0551628
324.228225,19.958571
325.131458,21.415697
325.733614,22.4591717
326.335769,23.5633726
326.937925,24.730692
327.841158,26.6043563
328.744391,28.6291306
329.70784,30.9560613
330.189564,32.1825528
331.153013,34.7527547
332.116462,37.4579006
335.006808,45.8827201
335.970256,48.5230168
336.692843,50.3333255
337.174567,51.4290998
337.656292,52.4170306
338.138016,53.2814431
338.61974,54.0077769
339.101465,54.583143
339.583189,54.9968563
340.064913,55.2409035
340.59481,55.3075528
341.028362,55.2033848
341.510087,54.9217913
341.991811,54.4704894
342.473535,53.8575017
342.95526,53.0935555
343.436984,52.1916182
343.918708,51.1663665
344.400433,50.0336243
345.123019,48.1689159
345.845606,46.154581
348.976814,36.8597292
349.940263,34.1107864
350.421987,32.7879542
351.385436,30.2625697
352.348884,27.9101908
352.830609,26.8010801
353.432764,25.4776945
354.335997,23.6217497
355.239231,21.9153316
356.142464,20.3503101
357.045697,18.9172929
357.647852,18.0303883
358.551086,16.7952914
359.153241,16.0311656
359.755396,15.3111789
360.357552,14.6326414
360.959707,13.9929839
361.561863,13.3897665
362.465096,12.5482539
363.067251,12.0263306
363.669407,11.5333469
364.271562,11.0674484
364.873718,10.6269006
365.475873,10.2100838
366.078029,9.81548669
366.680184,9.44170012
367.282339,9.08741121
367.884495,8.75139712
369.088806,8.12971715
370.293117,7.56846068
370.895272,7.30823122
372.099583,6.82457933
372.701738,6.5997217
373.906049,6.1807118
374.508205,5.98539542
375.712516,5.62051372
376.314671,5.4500003
377.518982,5.13068474
378.121137,4.98110683
379.325448,4.70035258
379.927604,4.56853835
381.131915,4.32058636
381.73407,4.20392142
382.938381,3.98401284
383.540536,3.88033129
384.744847,3.68451369
386.551314,3.4169862
387.755625,3.25425534
389.562091,3.03084836
390.766402,2.89431354
392.572868,2.70603765
393.777179,2.59047789
394.98149,2.48213053
396.185801,2.38042041
397.390112,2.28482751
398.594422,2.19488085
399.798733,2.11015315
401.003044,2.03026237
402.207355,1.95485007
403.411666,1.8835928
405.820288,1.75239188
408.22891,1.63459389
410.637531,1.52846241
413.046153,1.43253001
414.250464,1.38799143
416.659086,1.30507898
419.067708,1.22958216
421.476329,1.16065513
422.68064,1.12842322
425.089262,1.06801364
427.497884,1.01252753
429.906505,0.961451599
431.110816,0.937424969
434.723749,0.870790513
438.336682,0.8114141
441.949614,0.75829262
445.562547,0.710589115
449.17548,0.667601021
452.788412,0.628735227
456.401345,0.59348835
460.014278,0.561431018
463.62721,0.532195258
466.035832,0.514114018
469.648765,0.488898458
473.261697,0.465751795
478.078941,0.437737385
482.896184,0.412579396
485.304806,0.400953847
490.12205,0.379406835
496.143604,0.355309614
500.960848,0.338008975
506.982402,0.318524365
512.401801,0.302768134
518.423356,0.286982382
524.44491,0.272780942
530.466464,0.259964503
536.488019,0.248364092
542.509573,0.237835735
548.531128,0.228256172
557.563459,0.215437983
566.595791,0.204220381
572.617345,0.197509724
578.6389,0.19134168
587.671231,0.182993277
598.8937,0.173931346
608.746672,0.166998864
620.789781,0.159628482
629.822112,0.154788905
641.865221,0.149127678
653.90833,0.14425398
665.951439,0.140063546
677.994548,0.136472328
690.037657,0.133412616
702.080765,0.130830122
714.123874,0.128681778
730.253258,0.126427475
742.901922,0.125125117
753.754475,0.124318721
769.421954,0.123649416
785.089432,0.123565359
792.923171,0.12374814
808.59065,0.124615782
820.341258,0.125726886
832.091867,0.127255183
843.842476,0.129247916
855.593085,0.13176737
867.343694,0.134895023
879.094302,0.138737357
890.844911,0.14343408
902.59552,0.149169926
910.429259,0.153689819
914.346129,0.156191877
921.873982,0.161516463
930.013607,0.168151184
935.888912,0.173603692
939.805781,0.177592951
947.63952,0.186551393
951.55639,0.191588877
955.47326,0.197051905
959.390129,0.202987567
963.306999,0.209449783
967.223868,0.216500524
971.140738,0.224211292
975.057608,0.232664932
978.974477,0.241957854
982.891347,0.252202787
986.808216,0.263532201
990.333399,0.274784673
994.250269,0.288629968
998.167138,0.304100398
999.733886,0.310800689
1002.86738,0.325183464
1006.00088,0.341022116
1007.56763,0.349549258
1010.70112,0.367962001
1013.83462,0.388406956
1015.40136,0.399485912
1018.53486,0.423577511
1020.10161,0.436691458
1022.45173,0.457859836
1024.01848,0.473066461
1026.3686,0.497704539
1027.93535,0.515472283
1030.28547,0.544379041
1032.63559,0.576328204
1034.98571,0.611760621
1036.55246,0.637571886
1038.90258,0.680022042
1041.2527,0.727588878
1043.60283,0.78112477
1044.3862,0.800469481
1045.95295,0.841666123
1046.73632,0.863614943
1048.30307,0.910482778
1049.08644,0.935521611
1050.65319,0.989143488
1051.43656,1.01787604
1053.00331,1.0796036
1053.78669,1.11278698
1055.35343,1.18432392
1056.13681,1.22291732
1057.70356,1.30643385
1058.48693,1.35166588
1060.05368,1.44995846
1061.22874,1.53133033
1062.01211,1.58965577
1062.79549,1.65154984
1063.97055,1.75173045
1064.75392,1.82389328
1065.5373,1.90078892
1066.32067,1.98283271
1067.10404,2.07048558
1067.88742,2.16426
1068.67079,2.2647269
1069.45416,2.37252357
1070.23754,2.48836287
1071.02091,2.61304389
1071.80429,2.74746425
1072.58766,2.89263455
1073.37103,3.04969507
1074.15441,3.21993537
1074.93778,3.40481715
1075.72116,3.60600101
1076.50453,3.82537789
1077.2879,4.06510583
1077.67959,4.19335935
1078.46297,4.46835246
1079.24634,4.77056192
1079.63803,4.93294189
1080.4214,5.2826699
1080.81309,5.47109301
1081.59646,5.87804952
1082.18399,6.21225976
1082.77152,6.57412749
1083.35905,6.96648818
1083.94658,7.392495
1084.53411,7.85564952
1085.12164,8.35983173
1085.70917,8.90932742
1086.2967,9.50884954
1086.88423,10.1635489
1087.27592,10.6334088
1087.66761,11.1320189
1088.25514,11.9378488
1088.64683,12.5164391
1089.03851,13.1303747
1089.62604,14.1217538
1090.01773,14.832369
1090.40942,15.5847565
1090.76194,16.2988701
1091.23196,17.307063
1091.85866,18.7528555
1092.48536,20.3141684
1092.79871,21.1365613
1093.42541,22.8575902
1094.05211,24.6635764
1095.77553,29.7683764
1096.24555,31.0842683
1096.71558,32.3077741
1097.02893,33.0541049
1097.34228,33.7321542
1097.65563,34.3312291
1097.96898,34.8412963
1098.28233,35.2533666
1098.59567,35.5598666
1098.90902,35.7549723
1099.22237,35.8348778
1099.53572,35.797977
1099.84907,35.6449414
1100.16242,35.3786893
1100.47577,35.0042458
1100.78912,34.528509
1101.10247,33.9599409
1101.41582,33.3082076
1101.72917,32.5837968
1102.19919,31.3848516
1102.82589,29.6337687
1104.70599,24.0476163
1105.33269,22.2584905
1105.95939,20.5619663
1106.46858,19.2629132
1107.05611,17.8585019
1107.64364,16.5570243
1108.23117,15.3568524
1108.62286,14.6111169
1109.01455,13.9070926
1109.40623,13.243019
1109.79792,12.6170184
1110.18961,12.0271542
1110.5813,11.4714746
1110.97298,10.9480469
1111.56051,10.2192615
1111.9522,9.76833654
1112.34389,9.34334598
1112.93142,8.75094571
1113.3231,8.38385156
1113.71479,8.03736996
1114.30232,7.55342101
1114.69401,7.25285683
1115.0857,6.96862714
1115.67323,6.57063862
1116.26076,6.2038232
1116.84829,5.86526766
1117.43582,5.55235499
1118.02335,5.26273529
1118.61088,4.9942985
1119.00257,4.82616489
1119.5901,4.58891713
1120.17763,4.36821503
1120.76516,4.16263092
1121.15684,4.03333339
1121.74437,3.85015158
1122.13606,3.73473912
1123.11528,3.46757509
1123.89865,3.27369301
1124.29034,3.18273102
1125.07371,3.01173982
1125.85709,2.85410305
1126.24877,2.77987542
1127.03215,2.63985334
1127.81552,2.5101787
1128.5989,2.3898822
1129.77396,2.22516331
1130.55733,2.12474656
1131.3407,2.03108017
1132.12408,1.94358461
1132.90745,1.86173996
1133.69083,1.7850789
1134.4742,1.71318053
1135.25757,1.6456651
1136.04095,1.58218933
1136.82432,1.52244237
1137.99938,1.43920376
1138.78276,1.38760083
1139.56613,1.33884667
1140.74119,1.27061761
1142.30794,1.18786358
1143.483,1.13127986
1144.65806,1.07888654
1145.88986,1.02802747
1147.39987,0.970774541
1148.57493,0.929713195
1150.14168,0.879215695
1151.31674,0.844225982
1152.4918,0.811476077
1153.66686,0.78078062
1154.84192,0.751972902
1156.01698,0.724902667
1157.19204,0.699434221
1158.3671,0.675444775
1160.71723,0.631467845
1162.67566,0.598444426
1165.02578,0.56260031
1166.98422,0.535508099
1168.94265,0.510648359
1171.29277,0.483432608
1173.6429,0.4587406
1175.20964,0.443531385
1177.55977,0.422400776
1179.90989,0.40308635
1182.26001,0.385387825
1183.82676,0.374399884
1186.17688,0.359020292
1187.74363,0.349442641
1190.09375,0.33599806
1191.6605,0.327601905
1195.57737,0.308385543
1199.49424,0.291394674
1202.62773,0.279183225
1206.5446,0.265415777
1210.06978,0.254270245
1213.98665,0.243091342
1217.90352,0.23302254
1221.82039,0.223925009
1225.73726,0.215680971
1229.65413,0.208189994
1233.571,0.201366016
1237.48787,0.195134957
1241.40474,0.18943277
1245.32161,0.184203862
1249.23848,0.179399788
1253.15535,0.174978182
1260.98909,0.167138098
1266.86439,0.16201616
1270.78126,0.158914391
1278.615,0.153366303
1286.44874,0.148574427
1294.28248,0.144421907
1302.11622,0.140814083
1309.94996,0.137673643
1321.70057,0.133703192
1329.53431,0.131476098
1341.28492,0.128664331
1349.11865,0.127094991
1364.78613,0.124571928
1378.319,0.122950369
1390.4761,0.121862936
1412.85584,0.120622178
1423.07847,0.120336535
1443.52374,0.120215484
1459.26659,0.120485283
1474.19163,0.1210017
1494.63689,0.122085924
1517.33114,0.123763221
1546.3123,0.126594258
1566.19532,0.128984512
1587.56062,0.131996685
1604.01905,0.134710303
1616.28621,0.137087317
1626.50884,0.139549063
1633.66468,0.141915343
1638.776,0.144455077
1641.33166,0.146323597
1643.37618,0.148373641
1645.42071,0.151283495
1646.95411,0.154432604
1648.23193,0.15812857
1648.99863,0.161068925
1649.50976,0.163452844
1650.02089,0.166277618
1650.53203,0.169664397
1651.04316,0.173778998
1651.55429,0.17885322
1651.93764,0.183483161
1652.32099,0.189030656
1652.70434,0.195759624
1653.08768,0.204036095
1653.34325,0.210661439
1653.47103,0.214379502
1653.7266,0.222783667
1653.91827,0.2300882
1654.04606,0.235524017
1654.23773,0.244675157
1654.36551,0.251545537
1654.4933,0.259131751
1654.67219,0.271155165
1654.79997,0.280918039
1654.92776,0.291835044
1655.0811,0.306728352
1655.23444,0.323964644
1655.33666,0.337007335
1655.38778,0.344062041
1655.49,0.359372509
1655.59223,0.376494195
1655.64334,0.385824672
1655.74557,0.406238602
1655.79668,0.417421082
1655.87335,0.435574325
1655.92446,0.448691889
1656.00113,0.470079019
1656.05225,0.485603183
1656.12892,0.511036554
1656.18003,0.529590751
1656.2567,0.560152972
1656.30781,0.582574842
1656.38448,0.619733401
1656.46115,0.661777213
1656.48671,0.677025444
1656.53782,0.709594592
1656.58894,0.745212152
1656.61449,0.764283326
1656.66561,0.80522236
1656.69116,0.827212203
1656.74227,0.874575823
1656.76783,0.900104406
1656.81894,0.95529317
1656.8445,0.985152004
1656.89561,1.04996406
1656.93395,1.10354461
1656.97228,1.16194735
1657.01062,1.22575904
1657.04895,1.29565677
1657.08729,1.37242478
1657.12562,1.456975
1657.16396,1.55037215
1657.20229,1.65386465
1657.24063,1.76892275
1657.26618,1.8528997
1657.29174,1.9433769
1657.33008,2.0927636
1657.35563,2.20260037
1657.38119,2.32167245
1657.40675,2.45100387
1657.4323,2.59175766
1657.45786,2.74525777
1657.48342,2.9130145
1657.50897,3.0967545
1657.53453,3.29845563
1657.56009,3.52038776
1657.58564,3.76516002
1657.6112,4.03577545
1657.62398,4.18183568
1657.64953,4.49786362
1657.66231,4.66889952
1657.67509,4.84939426
1657.68787,5.03998399
1657.70704,5.34630104
1657.71981,5.56521678
1657.73898,5.91766435
1657.75176,6.16995425
1657.77093,6.57673869
1657.79009,7.02061284
1657.80926,7.50529019
1657.82843,8.03474561
1657.8476,8.61316648
1657.86676,9.2448658
1657.87954,9.69772667
1657.89232,10.1774096
1657.91149,10.9496984
1657.92427,11.5011486
1657.93705,12.0827238
1657.94855,12.6322307
1657.96388,13.4033347
1657.98432,14.4979968
1657.99455,15.0721991
1658.01499,16.267803
1658.08655,20.6557471
1658.107,21.8179858
1658.12233,22.6054823
1658.13255,23.0768103
1658.14278,23.4968423
1658.153,23.8588106
1658.16322,24.1565738
1658.17344,24.384861
1658.18367,24.5394949
1658.199,24.6273924
1658.20922,24.5883311
1658.21945,24.4717945
1658.22967,24.2799855
1658.23989,24.0164613
1658.25011,23.6859715
1658.26034,23.2942517
1658.27056,22.847787
1658.28078,22.3535643
1658.29612,21.538545
1658.31656,20.3520307
1658.37278,16.8866567
1658.39323,15.6641738
1658.41368,14.4995341
1658.43412,13.4049286
1658.44945,12.6338579
1658.46734,11.789795
1658.48651,10.9513786
1658.49929,10.429363
1658.51207,9.93583973
1658.52485,9.46972182
1658.54401,8.81930412
1658.55679,8.41635814
1658.56957,8.03644683
1658.58874,7.5069842
1658.60152,7.17913466
