energy [eV],cross section [b]
1e-05,34.1867578
1.06213663e-05,33.171699
1.15534157e-05,31.8055347
1.24854652e-05,30.5953573
1.32612699e-05,29.6869328
1.40370746e-05,28.8549001
1.48128793e-05,28.0891198
1.55886841e-05,27.3812417
1.65573124e-05,26.5682492
1.75259406e-05,25.8236235
1.84945689e-05,25.1382901
2.00678859e-05,24.1327612
2.18819522e-05,23.1107893
2.30913296e-05,22.4974518
2.43007071e-05,21.93049
2.65656532e-05,20.9747852
2.88305992e-05,20.1340395
3.12831934e-05,19.3286797
3.31684537e-05,18.7713324
3.50537141e-05,18.2595755
3.78816046e-05,17.5648113
4.02354398e-05,17.0432837
4.2589275e-05,16.5656128
4.49431102e-05,16.1259774
4.72969455e-05,15.7195838
5.02358182e-05,15.2528438
5.3174691e-05,14.8253533
5.61135638e-05,14.4319025
5.90524366e-05,14.0682014
6.45564156e-05,13.4551249
7.00603947e-05,12.9157937
7.6020372e-05,12.3991623
8.06016879e-05,12.0416287
8.74736618e-05,11.5589553
9.49149707e-05,11.096597
0.000100634957,10.776623
0.000106354943,10.4828226
0.000114934922,10.0839573
0.000122076591,9.78454739
0.000129218259,9.51031565
0.000136359928,9.25792016
0.000143501596,9.02460877
0.000156876655,8.63132507
0.00016579336,8.3960108
0.000174710066,8.17894926
0.00019030134,7.83673964
0.000207000723,7.51398399
0.000223700105,7.22808009
0.000244550061,6.91308634
0.000258450031,6.72461543
0.000279299987,6.46874613
0.000296654747,6.27667675
0.000322686887,6.01817106
0.000340041647,5.86258267
0.000359553139,5.7012925
0.000392055476,5.45985136
0.000413723701,5.31495011
0.000435391926,5.18100508
0.000475972606,4.95521919
0.000503026393,4.82012418
0.00053008018,4.69550811
0.000577384984,4.49904381
0.000628051851,4.31374802
0.000678718718,4.14960891
0.000720892012,4.02639712
0.000763065305,3.91354644
0.000826325245,3.76075709
0.000900067211,3.6034017
0.00095272253,3.50240588
0.00100537785,3.40945196
0.00105803317,3.32352638
0.00112377578,3.22484143
0.0011895184,3.13445503
0.00125526101,3.05126573
0.00132100363,2.97436645
0.0014441277,2.84474017
0.00156725176,2.73070601
0.00170057652,2.62147112
0.00185430265,2.51044966
0.00200802878,2.41243443
0.00218722697,2.31148988
0.00231518311,2.24670024
0.00250711734,2.15898091
0.00265097501,2.09957822
0.00281073421,2.03902989
0.00305037302,1.95728883
0.00321013222,1.90795681
0.00340959902,1.85129917
0.00360906581,1.79940581
0.00380853261,1.75164438
0.00413252119,1.6815679
0.00450608655,1.610345
0.00487965191,1.54746564
0.00531511619,1.48270672
0.00578152992,1.42162869
0.00624794365,1.36752398
0.00663616981,1.3269097
0.00702439597,1.2897105
0.00760673521,1.2393458
0.0082855667,1.18747539
0.00877028512,1.15418292
0.00925500354,1.12354114
0.00973972196,1.09521596
0.0106475122,1.0474687
0.0112527057,1.01889955
0.0118578992,0.992546114
0.0125383021,0.965226578
0.0132939143,0.937379839
0.0144273326,0.899785806
0.0156546534,0.863773206
0.0170697789,0.827170746
0.0184849044,0.794855471
0.0195455629,0.77297141
0.020723463,0.750664859
0.022490313,0.720549949
0.0240761598,0.696393011
0.0253,0.679324189
0.0263627163,0.665476915
0.0284881488,0.640143624
0.0313870562,0.609830256
0.0332232473,0.592716762
0.0350594384,0.576965388
0.0368956296,0.562404472
0.0391881997,0.545680686
0.0426270548,0.523170916
0.0460659099,0.503229913
0.0503594804,0.481258289
0.0532218608,0.468111017
0.0575154313,0.450260937
0.0610892464,0.436860648
0.0664499689,0.418823645
0.0718106915,0.402844376
0.0762727658,0.390848296
0.0807348402,0.379860022
0.0851969145,0.369745815
0.0896589888,0.360395533
0.0952300962,0.34965574
0.103586757,0.335199101
0.109157865,0.326496788
0.115421312,0.317474511
0.125854992,0.303966526
0.136288672,0.292038582
0.148451188,0.279751456
0.157135812,0.271863554
0.170162746,0.261181805
0.185348214,0.250177803
0.19619137,0.243113265
0.212456105,0.233546016
0.224646775,0.227065374
0.23818496,0.220458104
0.251723145,0.214389696
0.26526133,0.208790522
0.280481949,0.202984535
0.305836529,0.194289946
0.322739583,0.189069724
0.339642636,0.184242635
0.371299009,0.17610203
0.402955382,0.168936269
0.437234449,0.16206777
0.463584085,0.157311674
0.503108539,0.150886908
0.545907548,0.144727754
0.578806295,0.140462266
0.611705041,0.136543269
0.661053161,0.131218748
0.702128776,0.127218498
0.743204391,0.12355185
0.784280006,0.120174611
0.825355622,0.117050378
0.902282846,0.111778373
0.953567663,0.108620272
1.00485248,0.105704447
1.09452637,0.101101753
1.19057358,0.0967535809
1.2866208,0.0928953946
1.36656708,0.0899947997
1.4864865,0.0860842589
1.60640592,0.0826131837
1.70622257,0.0800028094
1.80603922,0.0776080114
1.9557642,0.0743591393
2.06798539,0.0721543943
2.19261112,0.0699029348
2.31723685,0.0678316269
2.44186258,0.0659173283
2.65977646,0.0628916037
2.893178,0.0600283934
3.12657953,0.057483595
3.4179922,0.0546696571
3.70940487,0.0521844579
4.02496074,0.0497944601
4.26752226,0.0481346336
4.51008378,0.0466060783
4.87392605,0.0445235467
5.17677539,0.0429543585
5.47962472,0.0415123884
5.78247406,0.0401810255
6.0853234,0.0389465705
6.65250562,0.0368570963
7.03062711,0.0356014812
7.40874859,0.0344395054
8.0699116,0.0325999888
8.778065,0.0308562185
9.48621839,0.0293041785
10.07566,0.0281345126
10.6651017,0.0270597202
11.5492641,0.0255992937
12.2119576,0.0246069573
12.9479029,0.0235928159
13.6838482,0.0226593897
14.4197935,0.021796612
15.2471971,0.0209006256
16.1660591,0.0199859429
17.544352,0.018749422
19.0368349,0.0175640065
20.1840768,0.01674373
20.7576977,0.0163595175
21.9049396,0.0156374518
23.0521815,0.0149709712
23.7683739,0.0145802004
25.2007587,0.013850806
26.6331436,0.0131833452
28.0655285,0.0125700976
29.6759205,0.011937414
31.4643196,0.011296376
33.2527187,0.0107118507
34.1469183,0.0104385069
35.9353174,0.00992578525
37.0517671,0.00962672926
39.2846666,0.0090718423
40.4011164,0.00881402928
42.6340159,0.00833337371
44.8669154,0.00789447731
47.6547943,0.00739757085
50.4426732,0.00694991434
53.2305521,0.00654487826
56.018431,0.00617697342
57.7588292,0.00596405928
61.2396257,0.00557246004
62.9800239,0.00539211326
66.4608204,0.00505874141
68.2012187,0.00490447486
71.028101,0.00466975754
73.2010692,0.00450156798
76.4605214,0.00426726482
78.6334896,0.00412199106
82.9794259,0.00385482448
87.3253623,0.00361522851
90.0384141,0.00347797675
92.7514659,0.0033492561
96.8210437,0.00317068159
100.890621,0.00300772474
106.316725,0.00281175573
109.029777,0.00272191051
114.110834,0.00256659063
117.498206,0.00247154212
122.579263,0.00234032191
125.966634,0.00225970111
129.354005,0.00218406482
132.741377,0.00211302979
136.128748,0.00204624989
140.358039,0.00196837167
144.58733,0.00189609376
148.816621,0.00182893106
153.045912,0.00176645202
157.275202,0.00170827175
161.504493,0.00165404624
165.733784,0.00160346741
172.603308,0.00152838517
180.524007,0.00145152383
188.444707,0.0013838091
196.365406,0.00132415148
204.286106,0.00127165022
209.566572,0.00124025183
218.799713,0.00119164176
225.392621,0.00116144333
231.985528,0.00113471808
238.578436,0.00111126087
248.467798,0.00108184781
255.060706,0.0010659088
261.653614,0.00105280617
269.065844,0.00104140275
277.297396,0.00103284577
285.528948,0.00102866035
293.7605,0.00102898334
297.876276,0.00103090475
306.107828,0.00103846635
314.33938,0.00105134602
322.570932,0.00107011199
326.686708,0.00108193122
332.489829,0.00110164201
337.551863,0.00112202155
344.301242,0.00115437919
351.050621,0.00119350959
357.8,0.00124057743
362.295,0.00127705217
366.79,0.0013182594
369.0375,0.00134084139
373.5325,0.00139044585
378.0275,0.00144674422
380.275,0.00147774495
384.77,0.00154628372
389.265,0.00162491934
391.5125,0.00166865392
393.76,0.00171574664
396.0075,0.00176657085
398.255,0.00182156445
400.5025,0.0018812458
403.649,0.00197387975
406.346,0.00206319308
408.44067,0.00214004467
410.841,0.00223763388
413.02229,0.00233677766
415.336,0.00245512549
417.118268,0.00255748286
418.327423,0.00263351951
419.41746,0.00270733861
421.41324,0.00285777059
423.27417,0.00301988529
424.326,0.00312308611
425.225,0.00321922656
426.32178,0.00334809712
427.023,0.00343820367
428.02089,0.00357859987
428.821,0.00370317585
429.72,0.0038582788
430.499883,0.0040081512
431.178627,0.00415226873
432.06639,0.00436368249
433.003597,0.00462128277
433.653125,0.00482531295
434.33187,0.00506579026
434.70945,0.00521370834
435.08703,0.00537324683
435.460115,0.00554368431
435.828705,0.00572611512
436.1928,0.00592177087
436.62432,0.00617631862
436.85806,0.00632575439
437.2716,0.0066127742
437.64019,0.00689625966
437.99979,0.0072019183
438.3504,0.00753187529
438.71,0.00790829015
439.0696,0.00832960681
439.4292,0.00880372928
439.7888,0.00934039511
440.0585,0.00979111337
440.3282,0.010289968
440.508,0.0106528808
440.6878,0.0110429981
440.8676,0.0114632074
441.0474,0.0119167917
441.2272,0.0124074957
441.4969,0.0132226998
441.6767,0.0138263868
441.7666,0.0141485058
441.9464,0.0148375618
442.0363,0.0152064108
442.193625,0.0158949862
442.3959,0.0168701089
442.598175,0.0179613543
442.733025,0.0187628428
442.867875,0.0196313345
442.9353,0.0200930979
443.07015,0.0210770591
443.205,0.0221497553
443.33985,0.0233223164
443.42975,0.0241658064
443.5646,0.0255346009
443.69945,0.0270427777
443.8343,0.0287100986
443.9242,0.0299214388
444.05905,0.0319081515
444.1939,0.0341268287
444.32875,0.0366152811
444.41865,0.0384463728
444.50855,0.0404335204
444.59845,0.0425950613
444.665875,0.0443432446
444.7333,0.0462114281
444.8232,0.0489086981
444.9131,0.051870105
445.003,0.0551314167
445.0929,0.0587346686
445.1828,0.0627295279
445.2727,0.0671750193
445.31765,0.0695882849
445.3626,0.0721417232
445.40755,0.0748464249
445.4525,0.0777145999
445.49745,0.0807597153
445.5424,0.0839966541
445.58735,0.0874418979
445.6323,0.0911137369
445.67725,0.0950325136
445.744675,0.101424013
445.8121,0.108510952
445.85705,0.113672887
445.902,0.11922598
445.94695,0.125210808
445.9919,0.13167335
446.03685,0.138665869
446.0818,0.146247978
446.12675,0.154487909
446.1717,0.163464057
446.21665,0.17326685
446.239125,0.17851034
446.272838,0.186843972
446.30655,0.195788488
446.329025,0.202120796
446.373975,0.215762878
446.418925,0.230862785
446.4414,0.239025217
446.48635,0.256728223
446.508825,0.266338828
446.5313,0.276507848
446.553775,0.287279391
446.587488,0.304673982
446.609962,0.317175307
446.632438,0.330472291
446.654913,0.344633892
446.688625,0.367667326
446.7111,0.38434483
446.744812,0.411595671
446.767288,0.431421816
446.801,0.46398528
446.823475,0.487804723
446.834713,0.500413769
446.857188,0.527155612
446.868425,0.541343541
446.8909,0.571505673
446.902137,0.587547234
446.924612,0.621738137
446.947088,0.6590212
446.958325,0.678940016
446.9808,0.721600033
446.992038,0.744461152
447.014513,0.793582437
447.02575,0.819994221
447.048225,0.876948343
447.059462,0.907684587
447.07969,0.967247682
447.102165,1.04059362
447.120145,1.10546349
447.13363,1.15818913
447.14262,1.19546687
447.1606,1.27563937
447.17858,1.36416506
447.19656,1.46224278
447.21454,1.57129374
447.22353,1.63045145
447.237015,1.72565167
447.246005,1.79382395
447.254995,1.86611341
447.263985,1.94285716
447.27747,2.06714948
447.28646,2.15674529
447.299945,2.30244412
447.308935,2.40791529
447.32242,2.58020665
447.33141,2.70551526
447.344895,2.91124613
447.353885,3.06166337
447.35838,3.14126256
447.36737,3.31001853
447.371865,3.39951695
447.380855,3.58969653
447.38535,3.6907936
447.39434,3.90615329
447.398835,4.02092617
447.407825,4.26607591
447.41232,4.39708397
447.42131,4.67772829
447.425805,4.82815242
447.434795,5.15141426
447.43929,5.32524495
447.44828,5.70010528
447.45727,6.11553876
447.464012,6.45730562
447.470755,6.828179
447.47525,7.09323452
447.479745,7.3738169
447.486487,7.82649999
447.490982,8.15149388
447.495477,8.49683285
447.499973,8.86422018
447.504467,9.25553752
447.508962,9.6728673
447.513457,10.1185183
447.517952,10.5950552
447.522447,11.1053321
447.526943,11.6525319
447.531437,12.2402109
447.535933,12.872351
447.540427,13.5534203
447.544922,14.2884428
447.54717,14.6779283
447.551665,15.5047211
447.55616,16.4010293
447.558407,16.8776212
447.562903,17.892975
447.567397,18.9991253
447.569645,19.5895178
447.57414,20.8522764
447.578635,22.2353395
447.580882,22.9765554
447.585377,24.5686609
447.587625,25.4241229
447.59212,27.2665645
447.595491,28.7746853
447.598862,30.4029289
447.602234,32.1632833
447.605605,34.0690795
447.608976,36.1351345
447.612347,38.3779005
447.615719,40.8156145
447.617966,42.5589369
447.620214,44.4043013
447.622461,46.3586054
447.624709,48.4291749
447.628642,52.356003
447.630328,54.1661976
447.632575,56.7075096
447.634822,59.4031733
447.63707,62.2626029
447.639318,65.2954063
447.641565,68.511258
447.643812,71.9197283
447.64606,75.5300589
447.648869,80.3398882
447.652241,86.5659567
447.6555,93.070819
447.658646,99.8095397
447.661343,105.936618
447.664939,114.577256
447.669434,126.01513
447.679323,152.09757
447.682919,161.027939
447.685616,167.162211
447.687414,170.881987
447.689212,174.242304
447.69101,177.190575
447.692808,179.677991
447.694606,181.661386
447.696404,183.105012
447.698202,183.9821
447.7,184.276071
447.701798,183.981314
447.703596,183.103448
447.705394,181.659059
447.707192,179.674925
447.70899,177.186799
447.710788,174.237852
447.712586,170.876899
447.714384,167.15653
447.717081,161.021453
447.720677,152.090176
447.730566,126.006155
447.734162,116.804718
447.737758,108.038756
447.741354,99.8000085
447.74495,92.1353124
447.748321,85.4835931
447.751692,79.3414697
447.755064,73.6898191
447.757311,70.1816356
447.759559,66.8707574
447.761806,63.747745
447.764054,60.8029502
447.766301,58.026712
447.768549,55.4095047
447.770796,52.9420468
447.773044,50.6153778
447.775291,48.4209108
447.777539,46.3504652
447.78091,43.4604873
447.783158,41.6671016
447.785405,39.972466
447.788776,37.6020557
447.791024,36.1277171
447.793271,34.7318781
447.796642,32.7745548
447.801137,30.3960124
447.803385,29.2967092
447.80788,27.2599578
447.810128,26.316009
447.814622,24.5623446
447.81687,23.7473698
447.821365,22.2292944
447.823612,21.5219284
447.828107,20.2009205
447.832603,18.9934928
447.83485,18.4285129
447.839345,17.3691536
447.84384,16.3957645
447.846087,15.9385307
447.850582,15.0780167
447.855077,14.2835062
447.857325,13.9089744
447.86182,13.2017131
447.866315,12.5458136
447.87081,11.9365397
447.877552,11.1009537
447.882047,10.5907749
447.886543,10.1143323
447.891037,9.66877192
447.895533,9.25152924
447.900027,8.86029568
447.904522,8.49298899
447.909018,8.14772769
447.913513,7.82280865
447.918007,7.51668758
447.92475,7.08971888
447.929245,6.82472942
447.93374,6.57415391
447.94273,6.11227433
447.95172,5.69695445
447.956215,5.50484316
447.965205,5.14842086
447.9697,4.98294468
447.97869,4.67487851
447.983185,4.53137041
447.992175,4.26335768
447.99667,4.13812218
448.003412,3.96030365
448.010155,3.79363798
448.019145,3.5872108
448.02364,3.4902255
448.03263,3.30763602
448.037125,3.22164272
448.05061,2.98278352
448.0596,2.83794789
448.073085,2.63963606
448.082075,2.51872065
448.09556,2.35230886
448.10455,2.25034239
448.118035,2.10936294
448.127025,2.02259704
448.14051,1.90213664
448.1495,1.82770301
448.15849,1.75754959
448.16748,1.69135538
448.17647,1.62882885
448.18546,1.56970473
448.20344,1.46071765
448.22142,1.36269976
448.2394,1.27423026
448.25738,1.19411067
448.27536,1.12132442
448.291092,1.06296757
448.31132,0.994409247
448.324805,0.952331105
448.340537,0.906537941
448.363012,0.846653793
448.37425,0.818919319
448.396725,0.767400552
448.4192,0.720611555
448.430437,0.698812083
448.452912,0.658091634
448.475388,0.620845395
448.486625,0.603403046
448.5091,0.570664894
448.531575,0.540535426
448.55405,0.512744955
448.587762,0.474937203
448.610237,0.452024989
448.632712,0.430744383
448.655188,0.410944204
448.677662,0.392490372
448.700137,0.375263639
448.722612,0.359157664
448.745087,0.344077375
448.767562,0.329937564
448.790037,0.316661685
448.812512,0.304180822
448.834988,0.292432792
448.857462,0.281361369
448.879937,0.270915618
448.91365,0.25632015
448.9586,0.238651775
448.981075,0.23050602
449.026025,0.215438297
449.070975,0.201826966
449.115925,0.189490355
449.1384,0.183750943
449.18335,0.173044489
449.205825,0.168047058
449.250775,0.158695957
449.27325,0.15431803
449.3182,0.146103015
449.340675,0.142246374
449.385625,0.134990775
449.4081,0.131575917
449.475525,0.12209812
449.54295,0.113641838
449.610375,0.106065552
449.655325,0.101444561
449.72275,0.0950826493
449.7677,0.0911830889
449.835125,0.0857896182
449.880075,0.082469014
449.9475,0.0778572812
449.99245,0.0750066595
450.059875,0.0710328677
450.104825,0.0685677316
450.17225,0.065119682
450.2172,0.0629737003
450.3071,0.05901088
450.397,0.0554389237
450.4869,0.0522082378
450.5768,0.049276852
450.6667,0.0466090549
450.7566,0.044174307
450.8465,0.0419463669
450.9364,0.0399025859
451.0263,0.0380233333
451.1162,0.0362915263
451.2061,0.0346922437
451.296,0.0332124053
451.3859,0.0318405065
451.4758,0.0305663954
451.5657,0.0293810867
451.70055,0.0277524236
451.79045,0.0267561115
451.88035,0.0258242769
452.0152,0.0245358295
452.1051,0.0237428838
452.195,0.0229978827
452.32985,0.0219622396
452.532125,0.0205716446
452.666975,0.0197396443
452.801825,0.0189744653
452.936675,0.0182693273
453.13895,0.0173114036
453.2738,0.0167319254
453.4536,0.0160242217
453.5435,0.0156956668
453.8132,0.0147995212
454.0829,0.0140204145
454.3526,0.0133398561
454.6223,0.0127428889
454.892,0.0122173102
455.0718,0.0119015539
455.2516,0.0116104973
455.4314,0.011341899
455.791,0.01086434
456.1506,0.0104554275
456.5102,0.0101044085
456.8698,0.00980260392
457.2294,0.00954294911
457.57102,0.00933002716
457.9486,0.00912791122
458.54194,0.00887024152
458.90154,0.00874456002
459.387,0.00860598205
459.939885,0.00848581642
460.50176,0.00839888646
461.25692,0.00832939189
462.084,0.0083057796
462.708805,0.00831903884
463.607805,0.00837879814
464.560745,0.00848838516
465.459745,0.00863079412
466.579,0.00885663081
467.37911,0.00904933317
468.377,0.00932515422
469.42883,0.0096583591
470.6245,0.0100911334
471.77522,0.0105643426
472.85402,0.0110618369
473.98676,0.0116449339
475.1195,0.0122962456
475.98254,0.0128428723
477.051,0.0135864854
478.217,0.0144923642
478.8,0.0149863751
479.470475,0.0155917456
480.386825,0.0164895899
481.292,0.0174653903
482.0519,0.0183610491
482.65535,0.0191274517
483.23645,0.0199160303
483.974,0.0209953555
484.655675,0.0220791368
485.125025,0.0228783664
485.78435,0.0240814245
486.4325,0.0253648126
487.103,0.0268097378
487.7735,0.0283883043
488.444,0.0301173328
489.1145,0.0320164001
489.785,0.0341083984
490.4555,0.0364202305
491.126,0.0389836831
491.573,0.0408508077
492.02,0.0428593488
492.6905,0.0461698376
493.1375,0.048600259
493.5845,0.051232526
494.0315,0.0540896197
494.4785,0.0571978946
494.9255,0.0605876911
495.3725,0.0642940815
495.8195,0.0683577846
496.210625,0.0722437764
496.7135,0.0777552722
497.216375,0.0839328989
497.384,0.0861588402
497.71925,0.0908886368
497.886875,0.0934029064
498.222125,0.0987590553
498.38975,0.101613754
498.725,0.107712092
498.9485,0.112091473
499.28375,0.119184771
499.50725,0.124298563
499.8425,0.132615956
500.066,0.138638268
500.40125,0.148478915
500.62475,0.155638718
500.96,0.167399138
501.1835,0.176002397
501.29525,0.180556918
501.51875,0.190217134
501.6305,0.195342839
501.854,0.206240734
502.0775,0.218083654
502.301,0.230984241
502.41275,0.237871007
502.63625,0.252608032
502.85975,0.268767438
503.08325,0.286538538
503.30675,0.306143238
503.53025,0.327843001
503.75375,0.351947632
503.8655,0.365014484
503.97725,0.378826406
504.089,0.393441184
504.20075,0.408922319
504.3125,0.425339716
504.480125,0.451892155
504.591875,0.471005543
504.703625,0.49136284
504.815375,0.513074443
504.983,0.548453915
505.09475,0.574120837
505.2065,0.601639276
505.31825,0.631191785
505.402062,0.654813754
505.513812,0.688436539
505.625563,0.724725517
505.737312,0.763970332
505.849062,0.806501052
505.967797,0.855713463
506.086531,0.909584287
506.208758,0.970546726
506.33273,1.0388775
506.460195,1.11695962
506.523055,1.15875419
506.589406,1.20547294
506.652266,1.25239397
506.722109,1.30782089
506.784969,1.36091832
506.854812,1.42380501
506.910687,1.47731208
506.980531,1.54855306
507.036406,1.60932855
507.10625,1.69047144
507.162125,1.75989352
