energy [eV],cross section [b]
1e-05,24092.8023
1.0889267e-05,23088.0417
1.14821117e-05,22484.0707
1.20749564e-05,21925.1434
1.2738094e-05,21346.7781
1.34715246e-05,20757.5192
1.45716705e-05,19958.5067
1.57587785e-05,19192.0005
1.71198106e-05,18413.2595
1.84808428e-05,17722.2107
2.00570431e-05,17011.5444
2.1179566e-05,16554.5561
2.28633505e-05,15933.2525
2.48133276e-05,15294.3108
2.62020432e-05,14883.444
2.89794745e-05,14152.1679
3.06975072e-05,13750.3877
3.24155399e-05,13380.9868
3.58516054e-05,12723.5124
3.90397704e-05,12192.8292
4.22279354e-05,11723.438
4.56681119e-05,11273.1408
4.96123116e-05,10815.6535
5.35565112e-05,10409.6804
5.81242569e-05,9992.17982
6.13772694e-05,9723.70779
6.62567882e-05,9358.70142
6.98955069e-05,9111.76475
7.39199319e-05,8860.17518
7.79443568e-05,8628.32923
8.19687818e-05,8413.77253
8.64703785e-05,8191.75223
9.14491471e-05,7965.54803
9.64279156e-05,7757.09488
0.000101406684,7564.18609
0.00010697578,7364.56629
0.000116214915,7065.61063
0.000125454049,6800.31485
0.000136153816,6527.4825
0.0001475839,6269.45322
0.000159013983,6039.76486
0.000168441042,5868.19141
0.000182581631,5636.18843
0.00019672222,5429.66646
0.000208384792,5275.39704
0.000220047364,5133.55689
0.000231709936,5002.56152
0.000243372508,4881.09557
0.000257800718,4742.38206
0.000279443032,4554.80988
0.000293871242,4441.44087
0.000310010189,4324.12522
0.000336784715,4148.42472
0.000363559242,3992.50034
0.000394566605,3832.13949
0.000427690386,3680.47204
0.000460814166,3545.45645
0.000488133289,3444.59742
0.000529111973,3308.20811
0.000556431095,3225.77107
0.000586989417,3140.46156
0.000620786938,3053.53898
0.000671483219,2935.66421
0.00070528074,2864.23792
0.000747092933,2782.66485
0.000788905126,2707.65886
0.000830717319,2638.38291
0.000898393236,2536.66692
0.000975984407,2433.3106
0.0010794393,2313.21659
0.00117543028,2216.26093
0.00127142125,2130.48521
0.00137499993,2048.18072
0.00145416931,1991.28268
0.00153333869,1938.84085
0.00165209276,1867.34782
0.0017500362,1813.93188
0.00189695136,1741.68459
0.0019948948,1698.0079
0.00210445129,1652.80179
0.0022862056,1585.07921
0.00252854468,1506.36857
0.00275339981,1442.80428
0.00297825495,1386.55374
0.00326477919,1323.44192
0.0035185408,1274.0822
0.00375282239,1233.00888
0.00409939189,1178.80018
0.0043288206,1146.5332
0.00467296366,1102.63726
0.00507151296,1057.45919
0.0053553479,1028.38642
0.00592301778,976.5953
0.00627416073,948.112111
0.00662530369,921.905024
0.0073275896,875.209899
0.00797920797,837.466695
0.00841362022,814.75329
0.00884803246,793.715128
0.00960266643,760.582953
0.0104088082,729.199916
0.01121495,701.219635
0.0122122585,670.460824
0.0128771308,651.941288
0.0138744393,626.659424
0.014696978,607.74195
0.0159307862,582.1133
0.0167533249,566.594292
0.0176733912,550.510128
0.0191997819,526.37002
0.0202173758,511.785834
0.0212349696,498.239078
0.0232674848,473.829577
0.0242837424,462.762433
0.0257852925,447.593055
0.0278280227,428.909676
0.0301641792,409.849888
0.0325003356,392.824436
0.0344271007,380.067482
0.0363538658,368.306816
0.0392440135,352.265394
0.0425910701,335.701539
0.0449747441,325.011937
0.0473584182,315.111718
0.0497420922,305.906715
0.0541654924,290.406824
0.0571144259,281.053677
0.0600633593,272.373007
0.0631790978,263.845831
0.0664616413,255.495386
0.0713854565,244.028336
0.076130775,234.010165
0.0829008337,221.18492
0.0874142061,213.448594
0.0941842648,202.872259
0.0997679288,194.948994
0.105351593,187.647881
0.110935257,180.892265
0.116518921,174.61829
0.123426683,167.443571
0.130334445,160.839539
0.140696088,151.853679
0.1459346,147.678396
0.154034297,141.648121
0.166183841,133.450965
0.178333386,126.121348
0.192908816,118.285105
0.20262577,113.556219
0.2172012,107.097932
0.227162743,103.068922
0.24024226,98.193207
0.253321776,93.7336131
0.266401292,89.6404674
0.276822738,86.6134006
0.297376125,81.1789557
0.315192775,76.9707731
0.3241011,75.0210161
0.337665709,72.2306557
0.348700055,70.1073938
0.3597344,68.1051282
0.37755105,65.105756
0.400960534,61.5571583
0.424370018,58.3993262
0.44881765,55.4655377
0.475542625,52.6312322
0.493359275,50.9345577
0.516800782,48.9138791
0.5379009,47.2832263
0.564625875,45.4510362
0.582442525,44.3634713
0.600259175,43.3760905
0.624260659,42.1956981
0.6448008,41.3152567
0.671525775,40.3404693
0.69825075,39.5518257
0.7160674,39.1271038
0.742792375,38.6401566
0.76951735,38.334266
0.79096882,38.2223738
0.8229673,38.2856995
0.849692275,38.5627221
0.87641725,39.0614111
0.903142225,39.8044754
0.920958875,40.4500736
0.94768385,41.6715286
0.9655005,42.6746821
0.978537482,43.5157931
0.992225475,44.5058069
1.01004213,45.9755856
1.02785877,47.6754602
1.0367671,48.6216269
1.05458375,50.7299331
1.0724004,53.1634767
1.08130872,54.5184814
1.09912538,57.5439835
1.1080337,59.2328024
1.11694202,61.0530145
1.12585035,63.0167127
1.13475868,65.1374778
1.143667,67.4306013
1.15257532,69.9133491
1.16148365,72.6052737
1.17484614,77.0847852
1.18375446,80.4037471
1.19266279,84.0243833
1.20385136,89.054505
1.21275969,93.4951807
1.22384192,99.6394784
1.23275025,105.148393
1.24165857,111.240715
1.24611274,114.531053
1.25413023,120.911153
1.26036606,126.322174
1.26571105,131.307309
1.27016522,135.728922
1.27551021,141.384274
1.27907354,145.383186
1.2862002,153.984343
1.28976353,158.61362
1.29689019,168.605999
1.30045352,174.003738
1.30758018,185.700871
1.31470684,198.753633
1.32005183,209.561303
1.32539683,221.359488
1.33074183,234.272245
1.33608682,248.443659
1.33965015,258.672407
1.34321348,269.591404
1.34855847,287.404367
1.3521218,300.341943
1.35568514,314.225646
1.36103013,337.034184
1.36459346,353.721383
1.36815679,371.74035
1.37172012,391.235847
1.37528345,412.372738
1.37884678,435.339419
1.38241011,460.351933
1.38597344,487.658939
1.38953677,517.547756
1.3931001,550.351729
1.39666343,586.459275
1.40022676,626.325041
1.40200843,647.830787
1.40468092,682.265862
1.40824425,732.693097
1.41002592,760.059187
1.41269841,804.110332
1.41448008,835.662054
1.41715258,886.618668
1.41893424,923.240764
1.42160674,982.599215
1.42427924,1047.88591
1.42650632,1107.39364
1.4287334,1172.10624
1.4314059,1257.4986
1.43363298,1335.94121
1.43496923,1386.54846
1.43630548,1440.05403
1.43764172,1496.67718
1.43897797,1556.65759
1.44031422,1620.25759
1.44165047,1687.76463
1.44298672,1759.49411
1.44432297,1835.79253
1.44565922,1917.04102
1.44744088,2033.80407
1.44877713,2128.31034
1.4505588,2264.56911
1.45189505,2375.22148
1.45367671,2535.30877
1.45501296,2665.76608
1.45679462,2855.18632
1.45857629,3064.4081
1.46035795,3296.06353
1.46213962,3553.18426
1.46303045,3692.36526
1.46392128,3839.26081
1.46481212,3994.3894
1.46570295,4158.30626
1.46659378,4331.60537
1.46793003,4610.54549
1.46882086,4810.16945
1.46971169,5021.58446
1.47060253,5245.57773
1.47193878,5606.98281
1.47282961,5866.15344
1.47416586,6284.59318
1.47505669,6584.76114
1.47639294,7069.32047
1.47772919,7598.05088
1.47906544,8174.20592
1.48040168,8800.69465
1.48129252,9247.46825
1.48218335,9718.05643
1.48360868,10520.743
1.48539035,11607.5009
1.48645935,12300.0715
1.48752834,13018.0249
1.49180434,15984.1874
1.49322967,16914.0862
1.49429867,17551.7653
1.49501134,17937.8251
1.495724,18285.9845
1.49643667,18590.7564
1.49714934,18847.055
1.497862,19050.3914
1.49857467,19197.0586
1.49928733,19284.2942
1.50003563,19310.0924
1.50071267,19274.8523
1.50142533,19178.2674
1.502138,19022.4329
1.50285066,18810.1951
1.50356333,18545.3364
1.504276,18232.4111
1.50498866,17876.559
1.50570133,17483.3093
1.50677033,16835.8495
1.50819566,15894.8507
1.51211532,13152.9599
1.51354065,12187.2905
1.51496599,11267.9303
1.51567865,10828.7794
1.51710398,9995.15418
1.51826207,9363.17526
1.51959832,8684.68722
1.52048915,8261.96525
1.52137998,7862.17822
1.52227081,7484.51119
1.52360706,6957.46333
1.52449789,6630.95841
1.52538873,6323.15494
1.52672498,5894.28836
1.52761581,5628.81425
1.52850664,5378.5634
1.52984289,5029.7209
1.53117914,4710.12197
1.53251539,4417.05339
1.53385163,4148.03144
1.53518788,3900.79618
1.53652413,3673.30023
1.53741496,3531.68171
1.53875121,3333.06637
1.53964205,3209.19348
1.54097829,3035.13697
1.54186913,2926.37241
1.54365079,2724.72507
1.54454162,2631.20798
1.54632329,2457.36034
1.54810495,2299.41258
1.54899579,2225.83305
1.55077745,2088.4562
1.55255912,1962.93138
1.55434078,1847.98785
1.55612245,1742.51317
1.55790411,1645.53142
1.55968578,1556.18447
1.56146744,1473.71614
1.56324911,1397.45853
1.56503077,1326.82041
1.56681244,1261.27727
1.5685941,1200.36275
1.57037577,1143.66131
1.57215743,1090.80188
1.57482993,1017.99977
1.57661159,973.36684
1.57839326,931.55535
1.58106576,873.63459
1.58284742,837.924933
1.58462909,804.328896
1.58730159,757.550026
1.58997408,714.685987
1.59264658,675.317937
1.59620991,627.641239
1.59799157,605.655545
1.6015549,564.98333
1.60333657,546.153876
1.6068999,511.192572
1.60868156,494.948971
1.61224489,464.68769
1.61580823,437.105253
1.61758989,424.221833
1.62115322,400.100602
1.62471655,377.973705
1.62649822,367.590733
1.63006155,348.066327
1.63362487,330.055809
1.6371882,313.407813
1.6425332,290.703913
1.64609653,276.914054
1.64965986,264.08534
1.65322319,252.131075
1.65678652,240.974066
1.66034985,230.545409
1.66391318,220.783445
1.66747651,211.632872
1.67103984,203.043974
1.67460317,194.971967
1.6781665,187.376418
1.68172983,180.220753
1.68529316,173.471828
1.68885649,167.099546
1.69420149,158.188117
1.69954648,149.98071
1.70667314,140.009638
1.7137998,131.016888
1.71736313,126.848034
1.72448979,119.097338
1.72983478,113.750986
1.73428895,109.57227
1.73963394,104.862134
1.74586977,99.7506202
1.7494331,97.0004213
1.75834143,90.6163162
1.76279559,87.6651928
1.77170391,82.1929318
1.78061224,77.2342483
1.7850664,74.9276808
1.79397472,70.6256289
1.80288305,66.6982184
1.81179137,63.1032105
1.8206997,59.8041402
1.82960802,56.7693959
1.83851635,53.9714668
1.84566506,51.8811299
1.85281377,49.9167451
1.86078716,47.8621964
1.86969549,45.7223013
1.87860381,43.7317984
1.88751214,41.8770637
1.89642046,40.1459887
1.90532879,38.5277833
1.91423711,37.0128069
1.92314544,35.5924257
1.93205376,34.2588885
1.94541625,32.4063495
1.95877874,30.7129509
1.97214123,29.1608648
1.98995787,27.2849193
2.00777452,25.6020491
2.02559117,24.086435
2.0344995,23.384446
2.05231615,22.0802285
2.06122448,21.4738113
2.07904112,20.3430879
2.08794945,19.8154916
2.1057661,18.8285064
2.11467442,18.3665046
2.13249107,17.4996368
2.1413994,17.0926748
2.16812437,15.9665566
2.19484935,14.9659057
2.22157432,14.0725413
2.23939098,13.529062
2.26611595,12.7825098
2.28805934,12.224363
2.3195659,11.4984629
2.33738255,11.1230167
2.37301585,10.4385336
2.3908325,10.1260673
2.4264658,9.55333632
2.4620991,9.04197891
2.47991575,8.80664726
2.51554905,8.37215434
2.55118235,7.98074452
2.568999,7.79950695
2.6046323,7.46306373
2.62244895,7.30683533
2.6758989,6.88079954
2.7115322,6.62853449
2.7471655,6.39865462
2.79603665,6.11584732
2.8449078,5.86636567
2.8896987,5.66366955
2.94314865,5.45076941
2.97878195,5.32475414
3.0322319,5.15749785
3.0678652,5.0594855
3.1391318,4.89330974
3.1747651,4.8242605
3.2103984,4.76410934
3.25,4.7073892
3.321151,4.63155133
3.3797155,4.59389065
3.43828,4.57869992
3.50821396,4.59088078
3.5749305,4.63504243
3.633495,4.70220918
3.6920595,4.79869792
3.750624,4.92808077
3.8091885,5.09505979
3.8482315,5.23023274
3.867753,5.30578936
3.906796,5.47446594
3.9263175,5.56833033
3.9653605,5.77725266
4.0044035,6.01780564
4.023925,6.15140641
4.05320725,6.37039463
4.07272875,6.52992909
4.102011,6.7917925
4.1215325,6.98290707
4.141054,7.18860722
4.17033625,7.52742574
4.18985775,7.77569889
4.20937925,8.04390945
4.22890075,8.33404092
4.24842225,8.64833761
4.26794375,8.98934671
4.28746525,9.35996848
4.30698675,9.76351641
4.336269,10.4390398
4.35772817,10.9953869
4.38019238,11.6421068
4.40459425,12.4306173
4.42411575,13.1358757
4.44363725,13.9174327
4.46315875,14.7864592
4.48268025,15.7562621
4.492441,16.2838196
4.50708213,17.1348376
4.51684288,17.7457305
4.52660362,18.3948201
4.53636437,19.0853282
4.54612512,19.820824
4.55588587,20.6052715
4.56564663,21.4430818
4.57540738,22.3391758
4.5900485,23.8048157
4.59980925,24.8721779
4.61445037,26.6270533
4.62421113,27.9120338
4.63885225,30.0372012
4.648613,31.6029827
4.65349338,32.4356246
4.66325412,34.2100528
4.67301487,36.1445495
4.67789525,37.1778982
4.687656,39.3906128
4.69741675,41.8190508
4.70229713,43.1230254
4.71205788,45.9308423
4.71693825,47.443881
4.726699,50.7142975
4.7345076,53.5917317
4.74036405,55.9204718
4.7462205,58.4104975
4.7540291,62.0079983
4.7579334,63.9371512
4.765742,68.0852447
4.7735506,72.6641925
4.7813592,77.7356987
4.7891678,83.3728986
4.7930721,86.4302479
4.7969764,89.6629908
4.8008807,93.0847755
4.804785,96.7106004
4.8086893,100.556977
4.8125936,104.642117
4.8164979,108.986144
4.8204022,113.611341
4.8243065,118.542431
4.83016295,126.573603
4.83406725,132.396703
4.83797155,138.636666
4.84187585,145.334084
4.8477323,156.339324
4.8516366,164.392961
4.85358875,168.657317
4.85749305,177.703602
4.86139735,187.503449
4.8633495,192.712231
4.8672538,203.806612
4.8711581,215.892341
4.87311025,222.344019
4.87701455,236.149048
4.8789667,243.53992
4.882871,259.403434
4.88482315,267.923202
4.88775138,281.511695
4.8906796,296.159575
4.89360783,311.978663
4.89653605,329.095742
4.89946427,347.654987
4.9023925,367.820867
4.90532072,389.781605
4.90824895,413.753352
4.9102011,430.973221
4.91215325,449.279937
4.91508148,478.981237
4.91703363,500.428149
4.91898577,523.328288
4.92044989,541.535627
4.92240204,567.304144
4.92386615,587.83635
4.9258183,616.960557
4.92728241,640.220063
4.92923456,673.292022
4.93118671,708.935075
4.93313886,747.41444
4.93509101,789.02914
4.93704316,834.117064
4.93899531,883.060873
4.94094746,936.294906
4.94289961,994.313257
4.94387569,1025.28959
4.9453398,1074.42978
4.94729195,1145.39596
4.94826802,1183.42541
4.94973214,1243.94672
4.95070821,1286.78009
4.95217232,1355.0726
4.9531484,1403.49569
4.95461251,1480.84648
4.95558859,1535.79609
4.9570527,1623.74056
4.95802878,1686.33471
4.95949289,1786.70539
4.96046896,1858.278
4.96193307,1973.25948
4.96339719,2098.22442
4.9648613,2234.2045
4.96632541,2382.33633
4.96778953,2543.86594
4.96925364,2720.15004
4.97022971,2846.58834
4.97120579,2980.69058
4.9726699,3197.25472
4.97413401,3433.77928
4.97559812,3691.92484
4.9765742,3876.83006
4.97755028,4072.49939
4.97852635,4279.32161
4.97999046,4611.12777
4.98125936,4920.02094
4.98243065,5222.67711
4.98360194,5541.61986
4.98516366,5990.18776
4.98672538,6460.93133
4.99102011,7794.62894
4.99258183,8250.92302
4.99375312,8564.17834
4.99453398,8754.03292
4.99531484,8925.44487
4.9960957,9075.72555
4.99687656,9202.3806
4.99765742,9303.20551
4.99843828,9376.37647
4.99921914,9420.52984
5.0,9434.82426
5.00078086,9418.98001
5.00156172,9373.29234
5.00234258,9298.61762
5.00312344,9196.33349
5.0039043,9068.27641
5.00468516,8916.66176
5.00546602,8743.99285
5.00624688,8552.96523
5.00741817,8238.11771
5.00897989,7780.02343
5.01327462,6443.17146
5.01483634,5971.8346
5.01639806,5522.90246
5.01717892,5308.39671
5.01874064,4901.09761
5.02000954,4592.22586
5.02147365,4260.53298
5.02244972,4053.82888
5.0234258,3858.30533
5.02440188,3673.5688
5.02586599,3415.71027
5.0273301,3179.50329
5.02879421,2963.27782
5.03025833,2765.37974
5.03172244,2584.21724
5.03318655,2418.28868
5.03465066,2266.19742
5.03611477,2126.65775
5.03757889,1998.49491
5.039043,1880.64134
5.04001908,1807.31853
5.04148319,1704.54651
5.04245926,1640.48849
5.04392338,1550.53436
5.04489945,1494.35874
5.0468516,1390.28709
5.04782768,1342.05826
5.04977982,1252.46622
5.05173198,1171.14611
5.05270805,1133.2902
5.0546602,1062.65929
5.05661235,998.179336
5.0585645,939.185392
5.06051665,885.095876
5.0624688,835.401026
5.06442095,789.653049
5.0663731,747.457714
5.06832525,708.467166
5.0702774,672.373775
5.07320562,623.077857
5.07515777,593.100038
5.07710993,565.190021
5.08003815,526.80969
5.0819903,503.314892
5.08394245,481.330189
5.08687068,450.91596
5.0897989,423.253308
5.09272712,398.025144
5.09565535,374.958082
5.09858357,353.815519
5.1015118,334.391935
5.10346395,322.308439
5.10736825,300.007598
5.1093204,289.707037
5.1132247,270.622512
5.11517685,261.773962
5.11908115,245.321341
5.12298545,230.362177
5.1249376,223.387292
5.1288419,210.350033
5.13177013,201.302905
5.13469835,192.824413
5.13860265,182.324921
5.14250695,172.657183
5.14641125,163.7362
5.15031555,155.487493
5.15421985,147.845589
5.15812415,140.752753
5.16202845,134.157919
5.16593275,128.015796
5.16983705,122.286098
5.17374135,116.932905
5.17764565,111.924105
5.18154995,107.230924
5.18545425,102.827519
5.1913107,96.7154848
5.195215,92.93966
5.1991193,89.3816017
5.20497575,84.4174612
5.20888005,81.3354988
5.21278435,78.4202763
5.2186408,74.3346237
5.2264494,69.3691042
5.2303537,67.0723874
5.2381623,62.8113225
5.2420666,60.8329639
5.2498752,57.149574
5.2537795,55.4335352
5.25963595,53.0026344
5.2654924,50.7302854
5.27134885,48.6030403
5.27818137,46.2886363
5.28794212,43.2631773
5.29770287,40.5299263
5.30746363,38.0525462
5.31722438,35.8001669
5.32698513,33.7464284
5.33674588,31.8687143
5.34650662,30.1475317
5.35587948,28.626383
5.36486445,27.2770043
5.3709085,26.4240332
5.38066925,25.1315297
5.39043,23.9349599
5.40019075,22.8250923
5.4099515,21.7937781
5.41971225,20.8338025
5.43435337,19.51378
5.44411413,18.7056351
5.45387488,17.949286
5.468516,16.9025629
5.48315712,15.9500123
5.49779825,15.0807184
5.51243937,14.2853011
5.5270805,13.5556639
5.546602,12.6731442
5.55636275,12.2665715
5.57588425,11.515069
5.585645,11.1674289
5.6051665,10.522405
5.61492725,10.2229159
5.63444875,9.66532033
5.6442095,9.40555871
5.663731,8.92042152
5.6832525,8.4768248
5.69301325,8.26915792
5.71253475,7.87953811
5.741817,7.35274028
5.7613385,7.03544422
5.79062075,6.60378714
5.81014225,6.34228036
5.8394245,5.98463163
5.858946,5.76687483
5.88822825,5.46770101
5.90774975,5.28476391
5.92727125,5.11376942
5.94679275,4.95375712
5.976075,4.73246496
5.9955965,4.59631457
6.0346395,4.34834793
6.0736825,4.12907248
6.093204,4.02897531
6.132247,3.84579459
6.17129,3.68294829
6.210333,3.53802051
6.249376,3.40898193
6.288419,3.29412184
6.327462,3.19199414
6.3860265,3.06004899
6.4250695,2.98479577
6.4641125,2.91874697
6.5031555,2.86122142
6.56172,2.78969256
6.6202845,2.73455231
6.6614491,2.70498975
6.6990777,2.68432856
6.75,2.66577601
6.804838,2.65769031
6.8653795,2.66305996
6.925921,2.68372464
6.9864625,2.72035127
7.047004,2.77401803
7.1075455,2.84627537
7.168087,2.9392365
7.208448,3.01406446
7.248809,3.10036059
7.2689895,3.14818788
7.3093505,3.25408575
7.3497115,3.37502193
7.369892,3.44172238
7.410253,3.58898011
7.450614,3.75690102
7.4707945,3.8495568
7.5111555,4.05450484
7.531336,4.16784047
7.56160675,4.35311145
7.5918775,4.55881529
7.62214825,4.78771242
7.64232875,4.95478391
7.66250925,5.13471623
7.68268975,5.3287633
7.70287025,5.53833995
7.72305075,5.76504722
7.74323125,6.01070239
7.76341175,6.27737489
7.7936825,6.72205677
7.813863,7.05239326
7.8340435,7.41368202
7.85926912,7.91479623
7.8744045,8.24528929
7.88449475,8.47940541
7.90467525,8.98410652
7.92485575,9.54316058
7.94503625,10.1645488
7.9551265,10.5015207
7.975307,11.2348133
7.98539725,11.6342546
7.9954875,12.0579015
8.00557775,12.5077362
8.02071313,13.2364441
8.03080337,13.7618498
8.04089363,14.3222012
8.05098388,14.9206534
8.06611925,15.8975821
8.0762095,16.6076123
8.09134487,17.7724857
8.10143513,18.6235421
8.1165705,20.0276754
8.12666075,21.0596096
8.13170587,21.6074937
8.14179613,22.7731142
8.15188638,24.0409189
8.1569315,24.7169085
8.16702175,26.1616024
8.177112,27.7428674
8.18215712,28.5901508
8.19224737,30.4104593
8.1972925,31.3890834
8.20738275,33.4990856
8.21242787,34.6376228
8.22170013,36.8923811
8.22857227,38.7132765
8.23462643,40.434883
8.2416896,42.5968441
8.2497618,45.2928696
8.257834,48.2599219
8.2659062,51.5355166
8.2739784,55.1638781
8.2780145,57.1263595
8.28406865,60.2761975
8.28810475,62.5256532
8.29214085,64.9055351
8.29617695,67.426098
8.30021305,70.098622
8.30424915,72.9355367
8.30828525,75.9505648
8.31232135,79.1588862
8.3183755,84.3711027
8.3224116,88.1404159
8.32846575,94.2911364
8.33250185,98.7596278
8.338556,106.087268
