energy [eV],cross section [b]
1e-05,1067171.87
1.06082312e-05,1036117.13
1.15205781e-05,994230.729
1.2432925e-05,957043.439
1.31891343e-05,929191.415
1.39453437e-05,903636.486
1.4701553e-05,880079.295
1.54577623e-05,858272.399
1.63979517e-05,833292.571
1.73381411e-05,810372.894
1.82783305e-05,789244.891
1.98029851e-05,758236.672
2.15563808e-05,726726.168
2.33097764e-05,698840.867
2.53475641e-05,670140.765
2.75275477e-05,643037.494
2.97075313e-05,618974.425
3.15144362e-05,600951.699
3.33213411e-05,584415.15
3.60316984e-05,561982.642
3.80584065e-05,546798.037
4.03049177e-05,531323.233
4.2551429e-05,517090.245
4.47979403e-05,503941.357
4.73177312e-05,490321.498
5.01108018e-05,476441.242
5.29038724e-05,463674.743
5.5696943e-05,451880.554
6.0566082e-05,433304.823
6.57749876e-05,415761.888
7.09838932e-05,400186.092
7.53013554e-05,388519.692
8.17775486e-05,372783.109
8.82537418e-05,358810.863
9.36216102e-05,348345.363
9.89894785e-05,338742.378
0.000107041281,325714.717
0.00011306213,316895.685
0.000119735961,307907.576
0.000126409791,299640.222
0.000133083621,292002.101
0.000140569298,284089.871
0.000148866822,276025.774
0.000161313106,265115.565
0.000174768754,254655.648
0.000190243126,244024.379
0.000205717499,234614.393
0.000223701737,224927.436
0.000236527852,218703.287
0.000255767023,210258.356
0.000278126692,201564.371
0.000294073303,195977.946
0.000325966527,186058.033
0.000345792829,180593.719
0.000365619132,175578.743
0.000385445434,170954.585
0.000405271737,166672.868
0.000442246577,159468.329
0.00046689647,155146.584
0.000491546363,151152.788
0.000534518337,144860.038
0.000580488878,138913.96
0.000626459419,133631.702
0.000683614247,127818.583
0.000721717466,124330.725
0.000778872295,119583.961
0.000826245741,116026.324
0.000897305911,111224.075
0.000944679357,108325.902
0.000997815606,105322.02
0.00105671466,102258.553
0.00111561371,99438.8235
0.00117451276,96831.9365
0.00124057666,94129.5651
0.00135041978,90078.8638
0.0014602629,86489.1933
0.00158792202,82789.138
0.00172448915,79289.2121
0.00186105628,76176.6513
0.00197425154,73841.851
0.00214404443,70687.2895
0.00231383731,67880.8906
0.00245457213,65775.0923
0.00259530694,63839.7687
0.00280640916,61209.1375
0.00296426384,59424.7067
0.00313923838,57602.7875
0.00331421292,55923.8315
0.00348918745,54369.7997
0.00379421925,51915.9996
0.00412053605,49590.988
0.00444685285,47519.8188
0.00485256007,45233.6761
0.0052582673,43209.4549
0.00569687636,41261.3432
0.00603315153,39909.1033
0.0063694267,38661.6738
0.00687383945,36958.9351
0.00729192784,35678.707
0.00771001623,34500.1088
0.00812810462,33410.1113
0.00854619301,32397.9301
0.00932590225,30688.1866
0.00984570841,29658.4023
0.0103655146,28703.8632
0.0112716887,27194.0103
0.0122410954,25760.5386
0.013210502,24481.4119
0.0142057438,23301.3702
0.0152009855,22234.6187
0.016144499,21312.32
0.0169240133,20607.109
0.0179230038,19769.1409
0.0189219943,18996.252
0.0199209848,18280.4783
0.0210304201,17544.4726
0.0222503,16798.0594
0.02408012,15784.5449
0.0261607376,14762.0921
0.0284770612,13757.4974
0.0307933849,12868.7461
0.0326417796,12229.2477
0.0347943532,11551.0258
0.0367142651,10998.6113
0.0392451403,10335.7154
0.0416321524,9769.48033
0.0428256584,9505.35048
0.0452126704,9010.99393
0.0464061765,8779.35162
0.0487931885,8344.04091
0.0505640914,8043.10534
0.0523349943,7759.18592
0.0541058971,7490.91226
0.0558768,7237.06105
0.0582705026,6914.92803
0.0606642052,6614.76392
0.0625090984,6397.08681
0.0661988849,5993.84387
0.0698886714,5628.64662
0.0735784579,5296.6315
0.07588296,5104.26824
0.0803555416,4760.15568
0.0848281233,4450.1802
0.0870644141,4306.56038
0.0915369958,4039.61446
0.0937732866,3915.43281
0.09838989,3676.65504
0.10339143,3441.94799
0.1058922,3332.97919
0.11089374,3130.08655
0.116241452,2933.08476
0.121242992,2765.28912
0.12589836,2621.80424
0.12839913,2549.33077
0.13340067,2413.2022
0.138164209,2293.55633
0.142689748,2188.05961
0.14840529,2065.08584
0.15340683,1965.96263
0.15840837,1873.99066
0.16340991,1788.52146
0.16841145,1708.97966
0.17341299,1634.85334
0.178066069,1570.35286
0.183067609,1505.43112
0.19091838,1411.88516
0.19591992,1357.12354
0.20092146,1305.7853
0.20842377,1234.64973
0.21592608,1169.89895
0.224064157,1106.12836
0.2309307,1057.04647
0.24093378,992.492068
0.25093686,935.328926
0.2559384,909.267593
0.26594148,861.76817
0.27094302,840.189628
0.278577285,809.871786
0.28594764,783.465169
0.29595072,751.916192
0.30095226,737.938689
0.31095534,713.516154
0.31595688,703.07139
0.32595996,685.784523
0.33346227,676.093323
0.34096458,669.392899
0.348660354,665.884423
0.3559692,666.031412
0.36347151,670.137329
0.37097382,678.799075
0.37847613,692.699008
0.38347767,705.270298
0.38597844,712.644954
0.39097998,729.741863
0.39598152,750.190207
0.39848229,761.74726
0.40348383,787.644594
0.407985216,814.185767
0.413987064,854.225669
0.419988912,898.923873
0.433993224,1009.92552
0.437994456,1038.43187
0.441995688,1062.70123
0.44599692,1081.02357
0.449998152,1091.84888
0.452999076,1094.32842
0.454999692,1093.12153
0.456900277,1089.81744
0.460001232,1079.95883
0.464002464,1059.47709
0.467003388,1038.98282
0.47100462,1006.01606
0.474005544,978.004468
0.477006468,948.008825
0.490010472,811.036131
0.49601232,751.270394
0.502014168,696.586112
0.5060154,663.308422
0.51101694,625.338404
0.51601848,591.255362
0.52102002,560.794796
0.52352079,546.823731
0.52852233,521.190291
0.533203705,499.742351
0.53602464,487.893717
0.54102618,468.680997
0.54602772,451.531931
0.55102926,436.202425
0.5560308,422.477817
0.56103234,410.170749
0.56603388,399.118482
0.57103542,389.180058
0.57603696,380.233575
0.58353927,368.447208
0.59104158,358.361512
0.59604312,352.462274
0.6060462,342.38069
0.61604928,334.279372
0.62105082,330.877495
0.6310539,325.224621
0.64105698,320.953287
0.6560616,316.834095
0.66606468,315.469924
0.67606776,315.133477
0.68607084,315.783542
0.70107546,318.564514
0.71107854,321.620422
0.72108162,325.656386
0.73608624,333.623186
0.74608932,340.284593
0.7560924,348.107247
0.76904774,360.112857
0.7820576,374.529106
0.7948052,391.253345
0.8075528,410.928337
0.8160512,425.913337
0.827584343,448.986846
0.833048,461.146927
0.8394218,476.442799
0.8500448,504.893536
0.854294,517.422413
0.8606678,537.585589
0.864917,552.01476
0.8712908,575.280293
0.8766023,596.291254
0.8819138,618.925871
0.886163,638.307366
0.8925368,669.713192
0.8989106,704.225403
0.9052844,742.238629
0.9095336,769.749578
0.9159074,814.656143
0.9222812,864.468221
0.928655,919.888272
0.9350288,981.746746
0.9414026,1051.02998
0.9445895,1088.81516
0.9477764,1128.91511
0.9509633,1171.51395
0.9541502,1216.81382
0.9573371,1265.03688
0.960524,1316.4276
0.9637109,1371.25537
0.9679601,1450.2236
0.971147,1514.28095
0.9743339,1582.893
0.9775208,1656.47536
0.98177,1763.12009
0.9849569,1850.17914
0.9892061,1976.80943
0.9934553,2116.95551
0.9977045,2272.43101
1.0019537,2445.32215
1.0040783,2539.03421
1.0062029,2638.025
1.0083275,2742.64867
1.0104521,2853.28333
1.0125767,2970.33198
1.0147013,3094.22324
1.0168259,3225.41178
1.0189505,3364.37833
1.0210751,3511.62912
1.024262,3749.2048
1.0263866,3919.53423
1.0289294,4136.8892
1.03180265,4401.39002
1.0338227,4600.10529
1.0370096,4936.34693
1.0401965,5301.96517
1.0433834,5698.395
1.04720768,6215.94274
1.05060704,6714.09526
1.0540064,7246.07285
1.05910544,8096.79946
1.06845368,9713.35452
1.07185304,10262.5994
1.07440256,10637.7754
1.07610224,10864.0517
1.07780192,11067.2939
1.0795016,11244.2441
1.08120128,11391.8932
1.08290096,11507.5969
1.08460064,11589.1864
1.08630032,11635.0635
1.08808498,11643.7657
1.08969968,11616.5593
1.09139936,11552.3577
1.09309904,11452.7977
1.09479872,11319.6401
1.0964984,11155.201
1.09819808,10962.2518
1.09989776,10743.9072
1.10159744,10503.5066
1.10414696,10109.0999
1.10669648,9684.3868
1.11689456,7882.53245
1.12029392,7301.63768
1.12369328,6749.43847
1.12709264,6231.45001
1.12964216,5867.12886
1.1326166,5468.84792
1.1358035,5073.78003
1.1379281,4828.08289
1.1400527,4595.99867
1.1421773,4376.98715
1.1443019,4170.46193
1.1464265,3975.81052
1.1485511,3792.41009
1.1506757,3619.63942
1.1528003,3456.88792
1.1549249,3303.56222
1.1570495,3159.09071
1.1591741,3022.92665
1.162361,2833.12712
1.1644856,2715.51737
1.1666102,2604.51662
1.1697971,2449.48914
1.1719217,2353.21769
1.1740463,2262.1884
1.1772332,2134.7473
1.1804201,2017.31652
1.183607,1908.96368
1.1878562,1777.17854
1.1899808,1716.22507
1.19423,1603.21202
1.1963546,1550.79877
1.2006038,1453.3636
1.2027284,1408.05561
1.2069776,1323.61454
1.2091022,1284.24928
1.2133514,1210.70534
1.215476,1176.33741
1.2197252,1111.98156
1.2239744,1052.95727
1.226099,1025.27155
1.2303482,973.244028
1.2345974,925.306316
1.236722,902.745216
1.2409712,860.21244
1.2452204,820.861045
1.2494696,784.397697
1.2558434,734.554947
1.2600926,704.231472
1.2643418,675.999578
1.268591,649.68339
1.2749648,613.460225
1.279214,591.277174
1.2834632,570.523223
1.2877124,551.088814
1.2919616,532.874871
1.2962108,515.791665
1.3047092,484.699383
1.3132076,457.245956
1.321706,432.962258
1.3302044,411.457795
1.3387028,392.406391
1.3472012,375.534902
1.3556996,360.614289
1.364198,347.452509
1.3726964,335.888877
1.3811948,325.78956
1.3896932,317.044028
1.3955,311.799827
1.40577203,303.896348
1.41451403,298.488446
1.42325603,294.245123
1.43636903,290.00818
1.44511103,288.592382
1.45385303,288.317984
1.46259503,289.21749
1.46696603,290.122957
1.47570803,292.888121
1.48445003,297.000431
1.49319202,302.574215
1.49756302,305.953676
1.50630502,314.007558
1.51504702,323.967687
1.52378902,336.097999
1.52816002,343.077551
1.53471652,354.826072
1.54127302,368.282464
1.54782952,383.675519
1.55438602,401.279039
1.56094252,421.421856
1.56749902,444.500437
1.57405551,470.994809
1.58061201,501.488679
1.58279751,512.660993
1.58716851,536.694906
1.59049462,556.628564
1.59372501,577.487645
1.59591051,592.5059
1.60028151,624.942712
1.60465251,660.924181
1.60793076,690.515249
1.61120901,722.584793
1.61448726,757.380492
1.61776551,795.177176
1.62213651,850.771672
1.62541476,896.809976
1.62760026,929.778921
1.62978576,964.710455
1.63306401,1021.0716
1.63524951,1061.48884
1.63743501,1104.34951
1.64071326,1173.55387
1.64289876,1223.19384
1.64508426,1275.82234
1.64890888,1375.58828
1.65273351,1485.79884
1.65491901,1553.7389
1.65765088,1643.92892
1.6601642,1732.15972
1.663661,1863.27904
1.6662836,1967.79833
1.6697804,2114.67528
1.6732772,2268.65235
1.6828934,2703.8295
1.685516,2816.2845
1.6881386,2921.13856
1.6916354,3043.87344
1.6933838,3095.88843
1.6951322,3140.52552
1.6968806,3177.02082
1.698629,3204.72193
1.7003774,3223.11584
1.70230064,3232.1863
1.7038742,3230.75902
1.7056226,3219.85238
1.707371,3199.33456
1.7091194,3169.58546
1.7108678,3131.14514
1.7126162,3084.69011
1.7143646,3031.00475
1.7169872,2938.81752
1.7196098,2835.37939
1.7231066,2685.26671
1.7327228,2249.15475
1.7362196,2096.03601
1.7397164,1950.53307
1.7414648,1881.13758
1.7449616,1749.62667
1.74780274,1650.14956
1.75108099,1543.60843
1.75435924,1445.68234
1.75654474,1384.99962
1.75873024,1327.83664
1.76091574,1274.04018
1.76310124,1223.44981
1.76528674,1175.90212
1.76747224,1131.23398
1.77075049,1069.28114
1.77293599,1031.12005
1.77512149,995.299156
1.77730699,961.678261
1.77949249,930.12444
1.78167799,900.512192
1.78386349,872.723447
1.78823449,822.180585
1.79260549,777.693716
1.79697649,738.565509
1.80134749,704.193091
1.80353299,688.62511
1.80790399,660.436563
1.81227499,635.841403
1.81664599,614.487734
1.82101699,596.076146
1.82320249,587.892761
1.82757349,573.431591
1.83194449,561.352365
1.83631548,551.493242
1.84287198,540.585591
1.84724298,535.756526
1.85161398,532.797199
1.85598498,531.660041
1.86035598,532.318272
1.86472698,534.765237
1.86899235,538.89002
1.87510657,547.860658
1.87918271,555.911376
1.88325885,565.694632
1.88937307,583.810125
1.89344921,598.341386
1.89752535,614.993331
1.90363957,644.310824
1.90771571,667.038309
1.91179185,692.586736
1.915868,721.234758
1.91994414,753.305409
1.92402028,789.172785
1.92809642,829.26989
1.93217257,874.097765
1.93624871,924.236059
1.94032485,980.355109
1.944401,1043.22956
1.94847714,1113.75337
1.95051521,1152.19969
1.95255328,1192.95574
1.95459135,1236.17392
1.95662943,1282.01703
1.9586675,1330.65856
1.96070557,1382.28305
1.96274364,1437.08613
1.96478171,1495.2745
1.96681978,1557.06558
1.96885785,1622.68679
1.97089593,1692.37443
1.97395303,1805.06439
1.97599111,1885.99259
1.97835909,1986.2309
1.98108628,2110.41443
1.98414339,2261.36964
1.9872005,2425.33593
1.99086903,2639.78753
1.99412994,2846.56689
1.99739086,3067.73935
2.00228223,3422.12963
2.01124974,4097.922
2.01451066,4328.39803
2.01695634,4486.20708
2.01940203,4625.80474
2.02103249,4706.39456
2.02266294,4775.4456
2.0242934,4831.75815
2.02592386,4874.30644
2.02755431,4902.28244
2.02918477,4915.13215
2.03081523,4912.58139
2.03326091,4880.00094
2.03489137,4839.66772
2.03652183,4785.24457
2.03815229,4717.68418
2.03978274,4638.13176
2.0414132,4547.87812
2.04304366,4448.31063
2.04548934,4284.6387
2.04875026,4047.13566
2.05771777,3356.43695
2.06097869,3113.45318
2.0642396,2882.20188
2.06750052,2665.03711
2.07076143,2463.13997
2.07381854,2288.02053
2.07687564,2126.38711
2.07993275,1977.71368
2.08298986,1841.28427
2.08502793,1756.73113
2.08808504,1638.86444
2.09012311,1565.88733
2.09216118,1497.09531
2.09419925,1432.24249
2.09623732,1371.09176
2.0982754,1313.4161
2.10031347,1258.99943
2.10235154,1207.637
2.10438961,1159.13556
2.10642768,1113.31328
2.10846575,1069.99946
2.11050382,1029.0342
2.11356093,971.665385
2.11763707,902.078868
2.12171322,839.499114
2.12578936,783.080139
2.12782743,756.947632
2.13190357,708.424663
2.13394165,685.886125
2.13801779,643.921816
2.14005586,624.376148
2.144132,587.887629
2.14617008,570.847368
2.15024622,538.954912
2.15228429,524.023241
2.15636043,496.00916
2.1583985,482.8616
2.16247465,458.137649
2.16451272,446.507584
2.17062693,414.256466
2.17470308,394.742512
2.18081729,368.080956
2.18489343,351.859947
2.19100765,329.582422
2.19508379,315.960479
2.20119801,297.163882
2.20527415,285.617688
2.20935029,274.78417
2.21342643,264.606017
2.21954065,250.455794
2.22361679,241.700374
2.23176908,225.637088
2.23788329,214.719867
2.24195944,207.922819
2.25011172,195.365139
2.25826401,184.037533
2.26641629,173.78313
2.27456858,164.469221
2.28272087,155.982957
2.29087315,148.227911
2.29902544,141.121307
2.30717772,134.591778
2.31533001,128.577535
2.3234823,123.024873
2.33163458,117.886937
2.33978687,113.122702
2.34793915,108.696127
2.35609144,104.575443
2.36424373,100.732565
2.37647216,95.4354155
2.38462444,92.1840228
2.39277673,89.1345636
2.40500516,84.9029278
2.42130973,79.8254018
2.42946201,77.5008727
2.44576659,73.2279509
2.45854878,70.1908953
2.47022344,67.6295162
2.48652802,64.354299
2.50283259,61.3902246
2.51913716,58.6989122
2.54359402,55.1036837
2.55989859,52.9625626
2.57212702,51.474938
2.58435545,50.0795637
2.60066002,48.3501364
2.62104073,46.3780037
2.65161181,43.7639452
2.68218288,41.5020029
2.71275395,39.5371722
2.74332502,37.8257964
2.7738961,36.3329355
2.80446717,35.0304375
2.83503824,33.895509
2.86560931,32.9096451
2.88599003,32.3276728
2.90637074,31.8014914
2.94713218,30.9040547
2.96751289,30.5276489
3.00827432,29.9093979
3.04903575,29.4609775
3.08,29.2291369
3.11609064,29.0751294
3.16324921,29.0628856
3.19861814,29.1979942
3.22219743,29.3598623
3.25756636,29.7166535
3.29293529,30.220558
3.32830423,30.8868701
3.35188351,31.4310188
3.38725244,32.4157131
3.41083173,33.1979234
3.44620066,34.5884839
3.46977995,35.6811203
3.48864338,36.6642624
3.50279095,37.4721218
3.52637024,38.9682474
3.55466538,41.045873
3.57352881,42.6294105
3.58296053,43.4885061
3.60182396,45.3566759
3.61125567,46.3727185
3.6301191,48.5886107
3.63955082,49.7975634
3.65841425,52.4436491
3.66784596,53.8928434
3.6867094,57.0784787
3.69614111,58.8311583
3.71028868,61.6863353
3.72443625,64.8458354
3.73858383,68.3527742
3.7527314,72.2582464
3.76687897,76.6231533
3.78102654,81.520534
3.79541227,87.1373497
3.80932169,93.2844613
3.81403755,95.5500621
3.82346926,100.389573
3.82818512,102.975877
3.83761683,108.516163
3.84233269,111.485608
3.85176441,117.866457
3.85648027,121.297341
3.86591198,128.694927
3.87062784,132.686428
3.88005955,141.325134
3.88949127,150.946989
3.89656505,158.899268
3.90363884,167.565003
3.9083547,173.780711
3.91307056,180.380487
3.92014434,191.070596
3.9248602,198.776706
3.92957606,206.993269
3.93429191,215.765447
3.93900777,225.143401
3.94372363,235.182943
3.94843949,245.9463
3.95315534,257.502987
3.9578712,269.930827
3.96258706,283.317121
3.96730292,297.760015
3.97201877,313.370091
3.97673463,330.272215
3.98145049,348.607701
3.98616635,368.53683
3.9908822,390.241807
3.99677703,420.189293
4.00149288,446.694163
4.00385081,460.889532
4.00738771,483.469458
4.00974563,499.442316
4.01328253,524.896268
4.01564046,542.935403
4.01917735,571.736236
4.02153528,592.185722
4.02507217,624.897242
4.02860906,660.270282
4.03214596,698.573608
4.03450389,725.883211
4.03804078,769.749796
4.04157767,817.416818
4.04511456,869.276227
4.04865146,925.759708
4.05218835,987.34034
4.05572524,1054.53303
4.05808317,1102.71858
4.0604411,1153.81803
4.063978,1236.32523
4.06751489,1326.41786
4.07105178,1424.72424
4.07340971,1495.12598
4.07576764,1569.61423
4.07812557,1648.33522
4.08166246,1774.60033
4.08472777,1892.11606
4.08755728,2007.23077
4.0903868,2128.50939
4.09321631,2255.5234
4.09793217,2477.89252
4.10830706,2984.14952
4.11207974,3157.10535
4.11490926,3275.72061
4.1167956,3347.53816
4.11868194,3412.31117
4.12056829,3469.01915
4.12245463,3516.71619
4.12434097,3554.56728
4.12622731,3581.88277
4.12811366,3598.14857
4.12990568,3603.07688
4.13188634,3596.4845
4.13377269,3578.57085
4.13565903,3549.63942
4.13754537,3510.21899
4.13943171,3461.01247
4.14131806,3402.86636
4.1432044,3336.73609
4.14509074,3263.64956
4.14792026,3143.30735
4.15169294,2968.39045
4.16206783,2458.65658
4.16584052,2279.11907
4.1696132,2108.18653
4.17338589,1947.62423
4.1762154,1834.57101
4.1795165,1710.86383
4.1830534,1588.03414
4.18541133,1511.58328
4.18776925,1439.32361
4.19012718,1371.09331
4.19248511,1306.71546
4.19484304,1246.00438
4.19720097,1188.77056
4.1995589,1134.82448
4.20309579,1059.66275
4.20545372,1013.13037
4.20781165,969.256898
4.21134854,908.075609
4.21370647,870.149897
4.2160644,834.345426
4.21960129,784.323625
4.22313819,738.353258
4.22667508,696.053647
4.23021197,657.08098
4.23374886,621.125407
4.23846472,577.40003
4.24082265,557.178221
4.24553851,519.68823
4.24789644,502.302098
4.25261229,469.982285
4.25497022,454.953163
4.25968608,426.941546
4.26440194,401.404836
4.26675987,389.478647
4.27147573,367.158001
4.27619158,346.698622
4.27854951,337.105413
4.28326537,319.082229
4.28798123,302.479227
4.29033915,294.66568
4.29505501,279.934496
4.29977087,266.302031
4.30448673,253.664753
4.30920258,241.930709
4.31391844,231.018054
4.3186343,220.853782
4.32335016,211.372637
4.32806602,202.516169
4.33278187,194.23192
4.33749773,186.472719
4.34221359,179.196068
4.34692944,172.363608
4.3516453,165.940654
4.35636116,159.895788
4.36107702,154.200502
4.36579288,148.828888
4.37050873,143.75736
4.37994045,134.430417
4.38937216,126.068952
4.39408802,122.20996
4.40351973,115.066104
4.41295145,108.607814
4.42238317,102.751804
4.42709902,100.027017
4.43653074,94.9443383
4.44124659,92.5723287
4.44832038,89.2080392
4.45539417,86.0590605
4.46954174,80.3387212
4.48368931,75.2908847
4.49783688,70.8170993
4.51198446,66.8362765
4.52613203,63.2811645
4.5402796,60.0956262
4.55442717,57.2325193
4.56857475,54.6520313
4.58272232,52.3203628
4.59215404,50.8897319
4.61101746,48.2922558
4.62044918,47.1124909
4.62988089,46.0044221
4.64874433,43.983564
4.65817604,43.0619562
4.67703947,41.3771376
4.68647119,40.6071945
4.70533461,39.1974561
4.7198666,38.219135
4.73834562,37.0963363
4.75720905,36.0761535
4.77135662,35.3864998
4.80200969,34.0895008
4.82558898,33.2547311
4.84916827,32.5444965
4.8845372,31.6852939
4.91990613,31.043534
4.95527506,30.5929961
4.99064399,30.3139211
5.02601292,30.1917005
5.06138186,30.2159381
5.09675079,30.3797846
5.12033008,30.5646011
5.16748865,31.1140466
5.19106794,31.4794005
