energy [eV],cross section [b]
1e-05,1051.93027
1.05998368e-05,1021.73282
1.14995919e-05,980.947332
1.23993471e-05,944.685974
1.31431055e-05,917.567146
1.38868639e-05,892.657253
1.46306224e-05,869.671832
1.53743808e-05,848.375198
1.62965927e-05,824.021125
1.72188046e-05,801.650786
1.81410165e-05,781.008721
1.96349696e-05,750.708835
2.13501934e-05,719.922393
2.30654173e-05,692.637302
2.50550022e-05,664.567729
2.71817677e-05,638.039483
2.93085333e-05,614.453882
3.10665668e-05,596.814887
3.28246004e-05,580.612656
3.54616508e-05,558.607373
3.74305911e-05,543.716775
3.96104379e-05,528.544044
4.17902848e-05,514.574511
4.39701317e-05,501.657123
4.6411489e-05,488.284611
4.91143568e-05,474.658728
5.18172246e-05,462.113378
5.45200924e-05,450.512906
5.92229059e-05,432.255494
6.42499753e-05,415.00061
6.92770446e-05,399.659721
7.55102825e-05,382.80871
8.17435203e-05,367.923892
8.84752814e-05,353.649841
9.362782e-05,343.780962
9.87803586e-05,334.694684
0.000106509167,322.322315
0.000112897978,313.069371
0.000119286789,304.570113
0.000132064412,289.461061
0.000143946976,277.256284
0.000151868685,269.928227
0.000159790394,263.152095
0.00016866245,256.137213
0.000178484852,248.989416
0.000193218455,239.307767
0.000209130425,230.023379
0.000227399131,220.589891
0.000245667837,212.229266
0.000259308073,206.571769
0.000274409408,200.807073
0.00029706141,192.998824
0.000312162745,188.272445
0.000330887414,182.867521
0.000349612084,177.902842
0.000368336753,173.321715
0.000387061422,169.077167
0.000410278789,164.223247
0.000433496157,159.764689
0.000456713524,155.650582
0.000494324901,149.61159
0.000537506931,143.475607
0.00058068896,138.037454
0.000630778235,132.442929
0.000684321132,127.155586
0.000737864029,122.454723
0.000782123826,118.93907
0.000826383624,115.70977
0.00089277332,111.323836
0.000942342849,108.355937
0.000997222108,105.331794
0.00105210137,102.547455
0.00110698063,99.972814
0.00116844361,97.307449
0.0012364903,94.5915705
0.00133856035,90.9129097
0.00140660705,88.6861843
0.00149098051,86.1397662
0.00161754071,82.7004788
0.0017441009,79.6426664
0.00190102728,76.2838165
0.00200564486,74.2670599
0.00216257124,71.5209098
0.00229229022,69.4671214
0.00248686868,66.6931866
0.00268144714,64.2269157
0.0028422902,62.3824385
0.00300313326,60.6881813
0.00316397632,59.1247995
0.00332481938,57.6762657
0.00352425427,56.0197522
0.00382340661,53.7823798
0.0040228415,52.4315186
0.00424620207,51.0330405
0.00461713144,48.9388572
0.0049880608,47.0827959
0.00541832272,45.1733146
0.00572494152,43.9459734
0.00618486972,42.2789967
0.0067183664,40.5640303
0.00709855369,39.4617086
0.00766883463,37.9645237
0.00809463198,36.9513674
0.00856603939,35.9189812
0.00903744681,34.9684307
0.00950885423,34.0894427
0.0100368151,33.1794521
0.0106213296,32.2521823
0.011205844,31.3984088
0.0117903584,30.6089055
0.0124449955,29.7915487
0.013532135,28.5675282
0.0146192746,27.4826302
0.0158803092,26.366445
0.0167789639,25.6489669
0.018126946,24.6744353
0.0196905465,23.6717792
0.0208048197,23.0272649
0.0219190929,22.4324962
0.0236000245,21.6161928
0.0253,20.8747422
0.026929935,20.2307469
0.029416433,19.3533232
0.0311295591,18.8109032
0.0328426851,18.3114358
0.0345558111,17.8495301
0.0364744563,17.3712879
0.0396607029,16.6550188
0.0428469495,16.0200668
0.0465428569,15.3666996
0.0504935947,14.7490421
0.0544443325,14.1997446
0.0577101037,13.7888358
0.0626087606,13.2336928
0.0675074175,12.7399595
0.0715567606,12.3705946
0.0756061038,12.0312203
0.0796554469,11.717977
0.08370479,11.4276669
0.0887257111,11.0955751
0.0962570927,10.6468506
0.101278014,10.3758115
0.106901282,10.0951212
0.116239703,9.67459269
0.125578125,9.30165647
0.136410287,8.9177398
0.14798932,8.55463495
0.159568353,8.23156167
0.169139849,7.9897773
0.183497094,7.66296613
0.197854339,7.37213959
0.20972237,7.1544577
0.221590401,6.95435822
0.233458431,6.76958193
0.245326462,6.59825667
0.260042045,6.40217723
0.28211542,6.13705648
0.296831004,5.9768116
0.313311977,5.81077001
0.34068152,5.56182209
0.368051064,5.34084696
0.399798543,5.11315024
0.43373499,4.89757883
0.467671438,4.70558158
0.494023578,4.57014003
0.533551789,4.38581989
0.57308,4.22060579
0.614665505,4.06400611
0.649448962,3.94454402
0.68423242,3.83414894
0.719015877,3.73171954
0.762145094,3.61440638
0.826838918,3.45564397
0.869968134,3.35960668
0.918271448,3.26003596
0.998487566,3.11064318
1.07870368,2.97794458
1.1609106,2.85624256
1.2272191,2.76697877
1.32285729,2.65007912
1.41178549,2.55208106
1.53511281,2.43039303
1.65844012,2.32245068
1.74263461,2.25541703
1.86612252,2.16544444
1.94652504,2.11155207
2.10733007,2.01328879
2.32086252,1.89927906
2.50249585,1.81441575
2.6129517,1.76740598
2.78832293,1.6989571
3.04333475,1.6110661
3.23988951,1.55131217
3.52889,1.4740453
3.75626,1.42085921
4.01725145,1.36690812
4.211,1.33121822
4.51416,1.28201719
4.81732,1.2401191
5.05080475,1.21239123
5.27206,1.18953042
5.57522,1.16335293
5.7268,1.1524338
5.87838,1.14294246
6.17627536,1.12845278
6.4847,1.11937507
6.71207,1.11670762
6.93944,1.11766613
7.2426,1.12506018
7.54576,1.14027654
7.69734,1.15119447
7.92471,1.17226492
8.15208,1.19973204
8.37945,1.23468726
8.60682,1.27855508
8.7584,1.31365687
8.83419,1.33321666
8.98577,1.37686617
9.13735,1.4273765
9.21314,1.45556701
9.36472,1.51870315
9.44051,1.55407132
9.554195,1.6125792
9.66788,1.67854876
9.74367,1.7272772
9.81946,1.78030932
9.89525,1.83815699
9.97104,1.90141949
10.04683,1.97080337
10.12262,2.04714841
10.19841,2.13146149
10.2742,2.22496164
10.312095,2.27561039
10.387885,2.38579605
10.463675,2.50960188
10.539465,2.64964387
10.57736,2.72676823
10.615255,2.80928591
10.65315,2.89778228
10.7099925,3.04324605
10.744098,3.13884814
10.781993,3.25343826
10.819888,3.37795691
10.850204,3.4856357
10.88052,3.60136979
10.910836,3.72611869
10.95631,3.9326484
10.986626,4.08527681
11.016942,4.25179834
11.047258,4.43423949
11.062416,4.53217325
11.092732,4.74322437
11.123048,4.97731063
11.153364,5.23845232
11.168522,5.38068318
11.198838,5.69214867
11.221575,5.95288304
11.236733,6.1416001
11.251891,6.34368812
11.274628,6.67510196
11.289786,6.91738969
11.304944,7.17908121
11.327681,7.61322084
11.350418,8.10591765
11.357997,8.28515629
11.373155,8.66920272
11.380734,8.87518579
11.395892,9.31840745
11.41105,9.80847928
11.426208,10.3526682
11.433787,10.647719
11.448945,11.2900122
11.464103,12.011826
11.471682,12.4068812
11.479261,12.8273905
11.4906295,13.5109782
11.4982085,14.0057569
11.5057875,14.5352536
11.517156,15.4020975
11.524735,16.0340881
11.532314,16.714555
11.5436825,17.8374823
11.5512615,18.6629314
11.5588405,19.5578402
11.5664195,20.5301171
11.5739985,21.5887723
11.5815775,22.7440929
11.5891565,24.0078488
11.5967355,25.3935318
11.6043145,26.9166348
11.6118935,28.5949747
11.6194725,30.4490629
11.6270515,32.5025262
11.6346305,34.7825762
11.63842,36.0171797
11.6441042,37.9994006
11.6478937,39.4146409
11.653578,41.6909619
11.6573675,43.3189206
11.661157,45.0421587
11.6649465,46.8670396
11.6706307,49.8097452
11.6744202,51.9189086
11.6801045,55.3225671
11.6857887,59.0378162
11.691473,63.0919856
11.6971573,67.5122813
11.7028415,72.3244135
11.7085257,77.5505986
11.7123152,81.272978
11.7157258,84.7887279
11.7202732,89.7202042
11.7233048,93.1600135
11.729368,100.385961
11.7384628,111.963876
11.7551366,134.072191
11.7611998,141.63586
11.7657472,146.829624
11.7687788,149.978385
11.7718104,152.822404
11.774842,155.31732
11.7778736,157.421988
11.7809052,159.100058
11.7839368,160.321469
11.7869684,161.063766
11.7898484,161.312468
11.7930316,161.064975
11.7960632,160.324273
11.7990948,159.105215
11.8021264,157.430608
11.805158,155.330826
11.8081896,152.842498
11.8112212,150.006996
11.8142528,146.868861
11.8188002,141.695265
11.8248634,134.166686
11.8415372,112.201242
11.8476004,104.461727
11.8536636,97.0938693
11.8597268,90.1747177
11.8642742,85.3044946
11.8695795,79.9774517
11.8752637,74.6911253
11.8790532,71.4027153
11.8828427,68.2961918
11.8866322,65.3645811
11.8904217,62.6002487
11.8942112,59.9951743
11.8980007,57.541167
11.9017902,55.2300306
11.9055797,53.0536878
11.9093692,51.0042718
11.9131587,49.0741907
11.9169482,47.2561716
11.9207377,45.5432879
11.9245272,43.9289737
11.9283167,42.4070291
11.9321062,40.971618
11.9377905,38.9688589
11.9453695,36.553088
11.9529485,34.3955883
11.9605275,32.4650514
11.964317,31.5762493
11.971896,29.9363099
11.979475,28.4619439
11.987054,27.1340816
11.9908435,26.519826
11.9984225,25.3813565
12.002212,24.8537883
12.0135805,23.419887
12.024949,22.1823187
12.0363175,21.1117848
12.047686,20.1841985
12.055265,19.6352511
12.062844,19.1358929
12.0742125,18.4702353
12.085581,17.8932863
12.100739,17.2434742
12.115897,16.7110786
12.131055,16.2791759
12.146213,15.9341508
12.161371,15.6649979
12.176529,15.4627889
12.191687,15.3202642
12.206845,15.2315169
12.222003,15.1917471
12.24474,15.2156406
12.259898,15.282959
12.275056,15.388751
12.290214,15.5313412
12.312951,15.8116475
12.328109,16.0417183
12.350846,16.4508478
12.366004,16.766401
12.388741,17.3050437
12.403899,17.7088408
12.426636,18.3844449
12.449373,19.1485325
12.47211,20.007653
12.498634,21.1409701
12.515504,21.9421352
12.5387328,23.158136
12.5564576,24.1824617
12.5741824,25.2989463
12.5830448,25.894548
12.6007696,27.1667951
12.6184944,28.5566386
12.631788,29.6839228
12.6450816,30.8908057
12.6628064,32.6358675
12.6716688,33.5718345
12.6893936,35.5837045
12.698256,36.6654688
12.7159808,38.9971442
12.7248432,40.254486
12.742568,42.9731828
12.7514304,44.4440522
12.7691552,47.6358762
12.7780176,49.3691495
12.7913112,52.1603435
12.8046048,55.2050168
12.8178984,58.5338011
12.831192,62.1820478
12.8444856,66.1907064
12.8577792,70.6073943
12.8666416,73.8056162
12.875504,77.2284609
12.8887976,82.8302745
12.89766,86.9115261
12.9065224,91.3019302
12.919816,98.5360197
12.9286784,103.843454
12.9375408,109.586615
12.9464032,115.812658
12.9552656,122.575014
12.964128,129.934363
12.9729904,137.959766
12.9818528,146.730001
12.9907152,156.335113
12.9995776,166.878235
13.00844,178.477705
13.0173024,191.269528
13.0217336,198.160593
13.030596,213.041678
13.0350272,221.080003
13.041674,233.959594
13.0461052,243.136816
13.052752,257.868904
13.0571832,268.385357
13.06383,285.297645
13.0704768,303.700037
13.0771236,323.746159
13.0837704,345.604408
13.0904172,369.458114
13.097064,395.505007
13.1037108,423.955628
13.1103576,455.030167
13.1147888,477.315148
13.11922,500.932049
13.1236512,525.944447
13.1280824,552.411583
13.1325136,580.385811
13.1369448,609.909439
13.144921,667.035279
13.1502384,707.961835
13.1555558,751.086938
13.1608733,796.259463
13.1661907,843.229906
13.1910054,1071.41614
13.1980954,1131.75727
13.2034128,1172.599
13.2069578,1197.0177
13.2105027,1218.75417
13.2140477,1237.45665
13.2175926,1252.80623
13.2211376,1264.52955
13.2246826,1272.41043
13.23,1276.72052
13.233545,1274.50432
13.2370899,1268.25247
13.2406349,1258.08145
13.2441798,1244.1782
13.2477248,1226.79166
13.2512698,1206.22195
13.2548147,1182.80804
13.2583597,1156.91483
13.2636771,1114.25406
13.270767,1052.20771
13.2902643,871.234939
13.3008992,776.654242
13.3079891,717.691449
13.3115341,689.641905
13.3168515,649.451159
13.3208396,620.815379
13.3252708,590.513057
13.3319176,547.999703
13.3385644,508.889573
13.3452112,472.997249
13.351858,440.109323
13.3562892,419.742096
13.362936,391.360627
13.3673672,373.78995
13.3717984,357.225246
13.3762296,341.605566
13.3806608,326.872702
13.385092,312.971353
13.3895232,299.849204
13.3939544,287.456936
13.3983856,275.748182
13.4028168,264.679451
13.407248,254.210022
13.4116792,244.301824
13.4161104,234.919302
13.4205416,226.029284
13.429404,209.605135
13.4382664,194.806368
13.4471288,181.439445
13.45156,175.239541
13.4604224,163.712531
13.4692848,153.238026
13.4781472,143.697798
13.4825784,139.245314
13.4914408,130.917536
13.495872,127.021253
13.5047344,119.716398
13.5091656,116.290619
13.518028,109.853313
13.5224592,106.827608
13.5313216,101.129846
13.5357528,98.4460468
13.5446152,93.3818375
13.5490464,90.9916546
13.5579088,86.4727927
13.5712024,80.2886517
13.5800648,76.5206679
13.5933584,71.3393542
13.6022208,68.1676998
13.6155144,63.7872904
13.6243768,61.0945149
13.6332392,58.5667363
13.6421016,56.1909634
13.6553952,52.8868963
13.6642576,50.842062
13.67312,48.9126247
13.6819824,47.0901791
13.6908448,45.3670612
13.6997072,43.7362721
13.717432,40.726616
13.7351568,38.0161564
13.7528816,35.5669008
13.7706064,33.3466442
13.7794688,32.3136543
13.7971936,30.3867196
13.8149184,28.6274013
13.828212,27.4065356
13.8415056,26.2624037
13.8592304,24.8455427
13.8769552,23.5409137
13.89468,22.3370437
13.9035424,21.7697022
13.9301296,20.1925865
13.9567168,18.7823572
13.983304,17.5163882
14.0098912,16.3757445
14.0364784,15.3444856
14.0542032,14.7109983
14.0807904,13.833068
14.1073776,13.0328311
14.1339648,12.3014163
14.1516896,11.8482218
14.1782768,11.2150386
14.204864,10.6324991
14.2403136,9.92559287
14.2757632,9.28882332
14.293488,8.99388404
14.3289376,8.44597005
14.3643872,7.94831538
14.3954056,7.54939731
14.4352864,7.08084085
14.470736,6.70153994
14.515048,6.27066747
14.55936,5.88200747
14.59896,5.56602833
14.623472,5.3837558
14.647984,5.21082928
14.692296,4.91995269
14.736608,4.65431187
14.758764,4.5300546
14.803076,4.29708386
14.825232,4.18780235
14.869544,3.98236869
14.8917,3.88575561
14.958168,3.61787082
15.024636,3.37919829
15.091104,3.16565314
15.135416,3.03554868
15.201884,2.85661643
15.246196,2.74705285
15.312664,2.59566768
15.356976,2.50255722
15.423444,2.37336941
15.467756,2.2935936
15.534224,2.18249314
15.578536,2.11363978
15.66716,1.98710586
15.711472,1.92890199
15.800096,1.82147888
15.88872,1.72473189
15.933032,1.67993254
16.021656,1.59674109
16.11028,1.52123588
16.198904,1.45252145
16.33184,1.36053382
16.420464,1.30566851
16.509088,1.25533923
16.597712,1.20908397
16.730648,1.14647203
16.819272,1.10874611
16.907896,1.07388758
16.99652,1.04164007
17.085144,1.01177682
17.173768,0.98409687
17.306704,0.946285464
17.395328,0.923324798
17.572576,0.882200599
17.6612,0.863810164
17.838448,0.830891351
18.0587266,0.7963562
18.281568,0.767679139
18.370192,0.757845987
18.54744,0.74064111
18.813312,0.720522669
19.079184,0.706686471
19.26234,0.700605309
19.47314,0.697001033
19.6116,0.696607315
19.75006,0.697800014
19.88852,0.700617047
20.02698,0.705114731
20.23467,0.715185065
20.37313,0.724266268
20.51159,0.735396413
20.71928,0.756305465
20.92697,0.782917811
21.06543,0.804279539
21.13466,0.816170741
21.27312,0.842622076
21.41158,0.873021292
21.55004,0.907919786
21.61927,0.927259789
21.75773,0.970204487
21.82696,0.994033765
21.96542,1.04706229
22.03465,1.07656894
22.138495,1.12507172
22.24234,1.17929955
22.346185,1.24008901
22.444997,1.30493661
22.553875,1.38556043
22.65772,1.47290866
22.761565,1.57227076
22.830795,1.64625202
22.900025,1.72731655
22.9519475,1.79330075
23.00387,1.86420836
23.038485,1.91445431
23.107715,2.02281232
23.14233,2.08128659
23.21156,2.20785368
23.246175,2.27641424
23.315405,2.42542596
23.3673275,2.54880939
23.41925,2.68349523
23.4711725,2.83089199
23.5057875,2.93701521
23.5404025,3.05005887
23.592325,3.23395426
23.6442475,3.43717193
23.69617,3.66249998
23.730785,3.8266121
23.7654,4.00314328
23.8173225,4.29407216
23.8519375,4.50763068
23.8865525,4.7388929
23.90386,4.86177912
23.938475,5.12344893
23.97309,5.40840395
24.007705,5.7194849
24.0250125,5.88583022
24.0596275,6.24242688
24.0942425,6.63440144
24.1288575,7.06658479
24.1634725,7.54466092
24.194626,8.01970018
24.229241,8.60454727
24.263856,9.25855309
24.291548,9.83908928
24.305394,10.1507655
24.333086,10.8217755
24.346932,11.1832952
24.374624,11.9645593
24.38847,12.3871182
24.409239,13.0653293
24.423085,13.5496676
24.443854,14.3295014
24.464623,15.1801955
24.485392,16.1105764
24.506161,17.1308842
24.52693,18.2530516
24.547699,19.4910501
24.568468,20.86132
24.589237,22.3833107
24.610006,24.0801625
24.630775,25.9795747
24.644621,27.3745889
24.658467,28.8858905
24.672313,30.5266858
24.6826975,31.8512776
24.693082,33.2643626
24.706928,35.3000898
24.720774,37.5290247
24.73462,39.9761852
24.748466,42.6707298
24.762312,45.6467976
24.776158,48.9445517
24.790004,52.6114825
24.796927,54.6006282
24.80385,56.7040461
24.810773,58.9305338
24.8211575,62.5223816
24.8280805,65.1008558
24.838465,69.2750407
24.845388,72.2823242
24.8557725,77.1692131
24.8626955,80.7037792
24.87308,86.4714163
24.880003,90.660921
24.8903875,97.5284589
24.8973105,102.540395
24.907695,110.797213
24.9111565,113.766718
24.9180795,120.065695
24.921541,123.407808
24.928464,130.511962
24.9319255,134.289238
24.9388485,142.336088
24.94231,146.624115
24.949233,155.780258
24.9526945,160.670835
24.9596175,171.139092
24.9665405,182.616691
24.9734635,195.229787
24.9803865,209.123267
24.9855787,220.482966
24.9925017,237.033154
24.9994247,255.385089
25.0028862,265.312135
25.0063477,275.784585
25.0098092,286.839008
25.0132707,298.514601
25.0167322,310.853349
25.0201937,323.900178
25.0236552,337.703094
25.0271167,352.313314
25.0305782,367.785369
25.0340397,384.177166
25.0375012,401.550011
25.0426935,429.591048
25.046155,449.706296
25.0513472,482.191191
25.0548087,505.498189
25.060001,543.124739
25.0651933,584.177208
25.0703855,628.89706
25.0755777,677.493245
25.0790392,712.121817
25.0821546,744.838739
25.087693,806.620627
25.094616,890.084821
25.101539,979.529575
25.1181542,1204.14237
25.1236926,1274.69144
25.1278464,1323.13306
25.1306156,1352.49687
25.1333848,1379.01282
25.136154,1402.2653
25.1389232,1421.86866
25.1416924,1437.48201
25.1444616,1448.82323
25.1472308,1455.68129
25.1501385,1457.91578
25.1527692,1455.51324
25.1555384,1448.48882
25.1596922,1429.61594
25.1624614,1411.813
25.1652306,1390.19078
25.1679998,1365.11546
25.170769,1336.99038
25.1749228,1290.01839
25.1804612,1220.72333
25.1970764,996.055467
25.205384,888.068794
25.2109224,820.73097
25.2136916,788.692863
25.21923,728.060057
25.2226915,692.530513
25.226153,658.810877
25.2313452,611.547171
25.2365375,568.101417
25.2417297,528.24974
25.246922,491.743034
25.2503835,469.136211
25.2555757,437.632335
25.2590372,418.126024
25.2642295,390.933654
25.267691,374.085477
25.2711525,358.187255
25.274614,343.179289
25.2798063,322.214354
25.2832678,309.193091
25.2867293,296.879586
25.2901907,285.228875
25.295383,268.904409
25.2988445,258.732937
25.3057675,239.939925
25.3126905,223.005069
25.3196135,207.707281
25.3265365,193.854691
25.329998,187.41739
25.336921,175.427127
25.343844,164.505399
25.350767,154.534481
25.3542285,149.872938
25.3611515,141.139654
25.364613,137.046906
25.371536,129.361578
25.3749975,125.751715
25.3819205,118.958317
25.385382,115.760492
25.392305,109.730035
25.3957665,106.885528
25.406151,98.9707323
25.4165355,91.8856543
25.42692,85.5207367
25.433843,81.631284
25.4442275,76.2682411
25.4511505,72.976598
25.461535,68.4190532
25.468458,65.6105639
25.4788425,61.7072525
25.4857655,59.2930837
25.49615,55.9261587
25.503073,53.8367246
25.509996,51.861079
25.516919,49.9912101
25.530765,46.5401076
25.544611,43.431834
25.558457,40.622887
25.572303,38.0763875
25.586149,35.7609161
25.599995,33.6495798
25.613841,31.7192576
25.627687,29.9499876
25.641533,28.324467
25.648456,27.5608299
25.662302,26.1233125
25.676148,24.7953947
25.696917,22.9857567
25.717686,21.367541
25.738455,19.9148118
25.759224,18.605862
25.779993,17.4224156
25.800762,16.3489992
25.821531,15.3724438
25.8423,14.4814861
25.863069,13.6664483
25.883838,12.9189782
25.897684,12.4545877
25.925376,11.5987305
25.939222,11.2039328
25.966914,10.4733008
25.994606,9.81291255
26.008452,9.50628995
26.036144,8.93538635
26.0603745,8.47779262
26.091528,7.94037374
26.11922,7.50538166
26.153835,7.01131702
26.18845,6.5657345
26.223065,6.16251781
26.25768,5.79648447
26.2749875,5.62600587
26.3096025,5.30767361
26.32691,5.15894588
26.361525,4.88041217
26.3788325,4.74990555
26.4134475,4.50483831
26.430755,4.38971084
26.46537,4.17298888
26.4826775,4.07093188
26.5346,3.7875003
26.5865225,3.534421
26.638445,3.30755262
26.67306,3.16913772
26.7249825,2.97855095
26.776905,2.80613639
26.8288275,2.64969649
26.8634425,2.55334174
26.915365,2.41950019
26.94998,2.33677417
27.01921,2.18523995
27.08844,2.05012398
27.123055,1.9880259
27.192285,1.87356201
