energy [eV],cross section [b]
1e-05,437.993444
1.08948675e-05,419.620358
1.14914458e-05,408.58285
1.20880241e-05,398.372871
1.27557835e-05,387.805336
1.34947241e-05,377.038133
1.4603135e-05,362.446681
1.57997131e-05,348.451602
1.71726255e-05,334.23243
1.8545538e-05,321.622994
2.01368637e-05,308.653171
2.12705519e-05,300.315102
2.29710843e-05,288.985229
2.49421501e-05,277.33154
2.63463719e-05,269.839589
2.91548154e-05,256.513758
3.08941285e-05,249.188316
3.26334415e-05,242.45662
3.61120677e-05,230.483044
3.93436191e-05,220.814558
4.14979868e-05,215.006277
4.36523544e-05,209.633466
4.73980055e-05,201.179658
5.14007064e-05,193.18757
5.54034072e-05,186.078035
5.87086544e-05,180.764013
6.3666525e-05,173.582924
6.86243957e-05,167.194829
7.27183783e-05,162.420047
7.6812361e-05,158.032271
8.09063436e-05,153.981898
8.50003262e-05,150.227789
9.00712614e-05,145.937524
9.51421965e-05,141.994994
0.000100213132,138.355627
0.000105284067,134.982461
0.000111565086,131.127544
0.000120986614,125.918207
0.000130408143,121.284124
0.000142077944,116.196189
0.000153747744,111.699118
0.000166345805,107.385838
0.000175982192,104.404129
0.000190436772,100.363378
0.000206041124,96.4877675
0.000217977055,93.8086105
0.000229912986,91.3408867
0.000241848917,89.0581729
0.000255208991,86.6955119
0.000269993209,84.2882027
0.000292169535,81.0258635
0.000306953753,79.0502544
0.000325265948,76.7924861
0.000352734241,73.7414445
0.000380202534,71.0273106
0.000414225622,68.0473478
0.00044824871,65.4134366
0.000484978123,62.8871583
0.000513072831,61.1407695
0.000555214894,58.7740884
0.000583309602,57.3408673
0.000618108588,55.7029463
0.000652907574,54.1977726
0.000705106053,52.152505
0.000744057103,50.7686491
0.000787160217,49.3586337
0.000830263331,48.0598849
0.000873366445,46.8584977
0.000948306869,44.9681617
0.00100169574,43.7528816
0.0010550846,42.6310396
0.00114153803,40.9841814
0.00124073172,39.3109203
0.0013399254,37.8270558
0.00145489957,36.3007467
0.00153680917,35.3194891
0.00165967358,33.9861149
0.00175135628,33.0839237
0.00185281208,32.1646671
0.00200499578,30.9188793
0.00210645158,30.1644368
0.00223211792,29.3022258
0.00235778425,28.5098782
0.00248345058,27.7784396
0.00268694404,26.70467
0.00292042543,25.6136561
0.00323173394,24.3471228
0.0035209313,23.3243503
0.00381012866,22.4202989
0.00412232987,21.5531415
0.00448053877,20.672036
0.00483874768,19.8906194
0.00510604691,19.3618718
0.00540183942,18.8231014
0.00584552819,18.0929155
0.00614132071,17.6506957
0.00650769858,17.1452834
0.00687407646,16.6807999
0.00724045433,16.2520001
0.00783373577,15.6224694
0.00851444644,14.9827718
0.00942206066,14.2400795
0.0102652102,13.6402545
0.0111083598,13.1099936
0.0120185766,12.6013104
0.0130629281,12.0843752
0.0141072795,11.62586
0.0148865855,11.3155652
0.0157489631,10.9993527
0.0170425296,10.5707323
0.0179049072,10.3111097
0.0189730751,10.0143483
0.020041243,9.74157901
0.021109411,9.4897282
0.0229581842,9.09599644
0.0253,8.66044097
0.0274698439,8.30748434
0.0299280309,7.95479658
0.0323862179,7.64290835
0.0350399383,7.34360961
0.0380847257,7.03934049
0.0411295131,6.76934878
0.0434015653,6.5865708
0.0459158113,6.40024873
0.0496871803,6.14758975
0.0522014264,5.99448724
0.0553156503,5.81942029
0.0584298742,5.65844269
0.061544098,5.50975142
0.0665870096,5.29130135
0.0723730725,5.069117
0.080087823,4.81086478
0.0872546218,4.60202871
0.0944214205,4.41719152
0.102158293,4.2396584
0.111035315,4.05900192
0.119912336,3.89853334
0.126536462,3.78980403
0.1338667,3.67888022
0.144862057,3.52831339
0.152192295,3.43698428
0.161271757,3.33246228
0.17035122,3.23626119
0.179430682,3.14731989
0.194133197,3.01649715
0.211002357,2.88323387
0.222248463,2.80276711
0.23349457,2.72805294
0.254389239,2.60231994
0.275283909,2.49083577
0.294662266,2.39795255
0.311008,2.32626896
0.334618567,2.23189082
0.358229134,2.14673303
0.379600307,2.07639997
0.411657067,1.9810379
0.433028241,1.92324669
0.456949329,1.86327379
0.496655836,1.77314649
0.523126841,1.71865726
0.549597846,1.66801778
0.598779569,1.58270267
0.647961293,1.506961
0.701055116,1.43400766
0.761973139,1.35956846
0.822891162,1.29328367
0.868348827,1.24828893
0.918652142,1.20232394
0.994107114,1.13984446
1.04441043,1.10190678
1.10671769,1.05846299
1.16902495,1.01846412
1.23133221,0.981483178
1.33222734,0.927113078
1.44799092,0.87180244
1.56375451,0.822731808
1.69793465,0.772284429
1.79352692,0.739893576
1.93691532,0.695972309
2.09013359,0.654277324
2.19555573,0.628261531
2.30097786,0.60414344
2.43236289,0.57643695
2.53165498,0.557041622
2.67831336,0.530544154
2.82497175,0.506318373
2.89830094,0.494968961
3.04495933,0.473645762
3.13578716,0.461284586
3.31744283,0.438297506
3.40827067,0.427594906
3.58992634,0.407604751
3.68075417,0.398258909
3.897352,0.377534406
4.18769486,0.352790069
4.38125676,0.337963036
4.57481867,0.324302256
4.77689971,0.311152697
4.9874999,0.298531073
5.26619741,0.283332415
5.61299222,0.266500082
5.78638963,0.258843634
6.11119481,0.24569744
6.436,0.233932323
6.600542,0.228441042
6.929626,0.218303539
7.094168,0.213621881
7.38099336,0.206018725
7.59478327,0.200775954
8.02236308,0.191262766
8.4499429,0.182895638
8.87752271,0.175522456
9.327238,0.168702291
9.736914,0.16322259
10.2053084,0.157712679
10.7324213,0.15236191
11.1991833,0.148288005
11.8088,0.143795932
12.3125,0.140715934
12.7652906,0.138386548
13.0501812,0.137118448
13.6199625,0.135007753
14.1784692,0.133451847
14.736976,0.132367434
15.287688,0.131732233
15.8384,0.131507317
16.751776,0.13200106
17.1601761,0.13256323
17.71888,0.133670799
18.269592,0.13514699
18.806872,0.136960808
19.33072,0.139093971
19.868,0.141669625
20.40528,0.144656409
20.8958494,0.147762439
21.47984,0.151962952
22.01712,0.156347016
22.5544,0.16127249
23.09168,0.166790249
23.62896,0.172961179
24.16624,0.179858271
24.70352,0.187569406
25.17364,0.19506762
25.5766,0.202120168
26.18104,0.213931355
26.71832,0.225867159
27.2556,0.239409867
27.52424,0.246881048
27.79288,0.254883345
28.06152,0.263475893
28.33016,0.272729183
28.5988,0.282728414
28.86744,0.2935782
29.2704,0.311743344
29.53904,0.325374931
29.80768,0.340508643
30.07632,0.357488601
30.21064,0.366815168
30.34496,0.376800407
30.47928,0.387541008
30.68076,0.405337596
30.88224,0.425650354
31.08372,0.449261721
31.18446,0.462649731
31.2852,0.477345493
31.41952,0.499419221
31.52026,0.518270804
31.58742,0.53217454
31.65458,0.547340594
31.72174,0.563974775
31.7889,0.582328971
31.85606,0.602714212
31.92322,0.625518262
31.99038,0.651229645
32.0585701,0.680950826
32.1247,0.714045516
32.15828,0.732774281
32.19186,0.753004834
32.22544,0.774923365
32.25902,0.798746252
32.30939,0.838615628
32.34297,0.868403027
32.373192,0.897765716
32.406772,0.933640756
32.42692,0.957017535
32.453784,0.990620381
32.480648,1.02733819
32.507512,1.06759262
32.534376,1.11187941
32.56124,1.16078449
32.588104,1.21500442
32.614968,1.2753723
32.641832,1.34289115
32.668696,1.41877702
32.682128,1.46030943
32.702276,1.52769524
32.715708,1.57637046
32.72914,1.62837222
32.742572,1.6840167
32.756004,1.74365838
32.769436,1.80769581
32.782868,1.87657819
32.7963,1.95081337
32.809732,2.03097712
32.823164,2.11772432
32.836596,2.21180223
32.850028,2.31406647
32.86346,2.42550028
32.876892,2.54723779
32.890324,2.68059249
32.903756,2.8270919
32.910472,2.9058171
32.923904,3.07547373
32.937336,3.26333691
32.944052,3.36491724
32.957484,3.58528376
32.970916,3.83156276
32.977632,3.96569611
32.987706,4.18230765
32.994422,4.33797576
33.004496,4.59027912
33.011212,4.77227765
33.021286,5.06842892
33.028002,5.28293242
33.038076,5.63349337
33.044792,5.88854439
33.054866,6.30735679
33.061582,6.61356114
33.071656,7.11899782
33.075014,7.30106616
33.08173,7.68776878
33.085088,7.89321292
33.091804,8.3305126
33.095162,8.56334748
33.101878,9.06008568
33.105236,9.32517922
33.111952,9.89210268
33.11531,10.1953861
33.122026,10.8456207
33.128742,11.5601294
33.135458,12.3471148
33.138816,12.7706812
33.145532,13.6845093
33.152248,14.697148
33.158964,15.8220312
33.162322,16.4313115
33.16568,17.0746276
33.169038,17.7542769
33.172396,18.4727186
33.175754,19.2325829
33.179112,20.036678
33.18247,20.8879973
33.185828,21.7897237
33.189186,22.7452328
33.192544,23.7580915
33.195902,24.8320531
33.19926,25.9710457
33.202618,27.179154
33.207655,29.1301466
33.211013,30.5296442
33.21605,32.7879109
33.219408,34.4055204
33.224445,37.0096801
33.229482,39.83665
33.2355264,43.5325706
33.2408992,47.0957003
33.246272,50.9072125
33.2543312,57.0175351
33.2691064,68.6937262
33.2744792,72.6901173
33.2785088,75.4345589
33.2811952,77.0983749
33.2838816,78.6010381
33.286568,79.9190112
33.2892544,81.0304524
33.2919408,81.9160505
33.2946272,82.5598209
33.2973136,82.9498016
33.3,83.0785972
33.3026864,82.9437247
33.3053728,82.5477312
33.3080592,81.898074
33.3107456,81.0067731
33.313432,79.8898656
33.3161184,78.5667084
33.3188048,77.0591811
33.3214912,75.3908507
33.3255208,72.6403373
33.3308936,68.6372071
33.3456688,56.9501212
33.353728,50.8378233
33.3591008,47.0261751
33.3644736,43.4636589
33.370518,39.7691405
33.375555,36.9437892
33.380592,34.3415629
33.38395,32.7253805
33.388987,30.4694157
33.392345,29.0715375
33.395703,27.7535014
33.399061,26.5109752
33.402419,25.3396882
33.405777,24.2354796
33.409135,23.1943329
33.412493,22.2123996
33.415851,21.2860133
33.419209,20.4116982
33.422567,19.5861715
33.425925,18.8063424
33.429283,18.0693084
33.432641,17.372349
33.437678,16.3965277
33.441036,15.7889813
33.444394,15.2133114
33.45111,14.1497369
33.457826,13.1913829
33.461184,12.7476845
33.4679,11.9242171
33.474616,11.1777067
33.481332,10.4993593
33.48469,10.1833159
33.491406,9.59318214
33.494764,9.31753721
33.50148,8.80157797
33.504838,8.55999283
33.511554,8.10673284
33.514912,7.89401418
33.521628,7.49402929
33.524986,7.30590144
33.53506,6.78433855
33.541776,6.4688954
33.55185,6.03815362
33.558566,5.77626912
33.56864,5.41689593
33.575356,5.19735712
33.58543,4.89473848
33.592146,4.7090657
33.60222,4.4520802
33.608936,4.29378005
33.61901,4.07386088
33.625726,3.93790226
33.6358,3.74837504
33.642516,3.63081683
33.655948,3.41459061
33.66938,3.22071598
33.682812,3.04627127
33.689528,2.96554964
33.70296,2.81574975
33.716392,2.67990194
33.729824,2.55636061
33.743256,2.44371408
33.756688,2.34074602
33.77012,2.24640419
33.783552,2.15977475
33.796984,2.08006108
33.810416,2.00656634
33.823848,1.9386789
33.83728,1.87586025
33.850712,1.81763475
33.864144,1.7635811
33.877576,1.7133251
33.891008,1.66653349
33.917872,1.58218445
33.944736,1.5085058
33.9716,1.44385853
33.998464,1.38690682
34.025328,1.33655335
34.052192,1.29189011
34.079056,1.25216069
34.119352,1.20045794
34.146216,1.17050096
34.17308,1.14365455
34.213376,1.10844931
34.24024,1.08792369
34.27382,1.06514206
34.3074,1.04517578
34.34098,1.02767921
34.37456,1.01235964
34.44172,0.987291008
34.4753,0.977145786
34.54246,0.960839786
34.57604,0.954423247
34.6432,0.944542022
34.74394,0.935894797
34.84468,0.933195258
34.979,0.936851796
35.11332,0.947110993
35.24764,0.962747833
35.38196,0.982967925
35.58344,1.02083247
35.71776,1.05069534
35.91924,1.10212442
36.12072,1.16153542
36.3222,1.22927374
36.52368,1.3059854
36.72516,1.39259973
36.92664,1.4903405
37.06096,1.56243412
37.19528,1.64070773
37.3296,1.72580034
37.46392,1.81845034
37.59824,1.91951165
37.75,2.04506323
37.908999,2.19131077
38.0403561,2.32508533
38.1717133,2.47221173
38.3030705,2.63449295
38.4344277,2.81405306
38.5219991,2.94458273
38.6095706,3.08475967
38.7409277,3.31526572
38.8284992,3.48407732
38.9160706,3.66651951
38.9598564,3.76331409
39.0474278,3.96908761
39.0912135,4.07852564
39.178785,4.3117778
39.2225707,4.43615796
39.3101422,4.7020037
39.3977136,4.99302362
39.4852851,5.31250017
39.5290708,5.48408395
39.6166422,5.853643
39.7087492,6.28490385
39.7917851,6.71660298
39.8355709,6.96266638
39.8793566,7.22270579
39.9231423,7.4978011
39.966928,7.78913866
40.0107138,8.0980241
40.0544995,8.42589699
40.0982852,8.7743477
40.1420709,9.14513677
40.2077495,9.74753584
40.2515352,10.1832007
40.295321,10.649061
40.3391067,11.1479759
40.3828924,11.6831506
40.4266781,12.2581888
40.4704639,12.8771534
40.5142496,13.544638
40.5580353,14.265853
40.601821,15.046727
40.6237139,15.461615
40.6674996,16.3449723
40.7112854,17.3068182
40.7550711,18.3567366
40.7988568,19.5058192
40.8207497,20.1214965
40.8645354,21.4441596
40.9083211,22.9024131
40.930214,23.6882514
40.9739997,25.3869221
41.0002711,26.4957305
41.022164,27.4764232
41.0484354,28.7271395
41.0790854,30.2977412
41.0965997,31.2539486
41.1316283,33.3077978
41.1578997,34.9844255
41.1929283,37.4248051
41.2191998,39.4270508
41.2542283,42.3571856
41.2717426,43.9464924
41.2892569,45.6270778
41.3067712,47.4060511
41.3242855,49.2912256
41.3417998,51.2912028
41.3593141,53.4154704
41.3768284,55.6745132
41.3943427,58.0799411
41.411857,60.6446365
41.4293712,63.3829246
41.4468855,66.3107713
41.4643998,69.4460122
41.4819141,72.8086204
41.4994284,76.4210201
41.5169427,80.308454
41.5432141,86.7186399
41.5607284,91.4267232
41.5782427,96.5274066
41.595757,102.065289
41.6088927,106.536057
41.6220284,111.305612
41.6395427,118.176937
41.6482999,121.852257
41.6658142,129.733016
41.6745713,133.961208
41.687707,140.698848
41.7008427,147.953635
41.7139785,155.779292
41.7227356,161.343244
41.7358713,170.25945
41.749007,179.927534
41.7621428,190.433286
41.7752785,201.874895
41.7884142,214.365121
41.8015499,228.033915
41.8146856,243.031602
41.8278213,259.532738
41.8365785,271.467887
41.8453356,284.229581
41.8584713,305.091283
41.8672285,320.272922
41.8759856,336.589461
41.8891214,363.442685
41.8978785,383.12088
41.9066356,404.394057
41.9153928,427.433234
41.9241499,452.43199
41.9329071,479.609934
41.9416642,509.216759
41.9504214,541.536993
41.9591785,576.895561
41.9679357,615.66428
41.9723142,636.458307
41.9810714,681.160982
41.9898285,730.461431
41.9942071,757.021221
42.000775,799.481684
42.0051535,829.669429
42.0117214,878.022442
42.0161,912.464815
42.0226678,967.737383
42.0270464,1007.18169
42.0336142,1070.59691
42.0401821,1139.57785
42.04675,1214.69966
42.0533178,1296.59405
42.0598857,1385.9506
42.0664535,1483.51586
42.0730214,1590.0887
42.0795893,1706.51054
42.0861571,1833.64773
42.092725,1972.36318
42.0971035,2071.67919
42.1014821,2176.72399
42.1058607,2287.68335
42.1124286,2465.50187
42.1159314,2565.98487
42.1229371,2778.61565
42.1299428,3006.06352
42.1369486,3246.50939
42.1614686,4128.52554
42.1667228,4305.67328
42.1719771,4469.34381
42.17548,4568.55166
42.1789829,4658.13415
42.1824857,4736.68725
42.1859886,4802.9084
42.1894914,4855.64635
42.1929943,4893.94864
42.1964971,4917.10308
42.2,4924.67014
42.2035029,4916.50351
42.2070057,4892.75704
42.2105086,4853.87749
42.2140114,4800.58374
42.2175143,4733.83413
42.2210171,4654.78481
42.22452,4564.7422
42.2280229,4465.11306
42.2332772,4300.88672
42.2402829,4061.91257
42.2595486,3364.39423
42.2700572,2999.65016
42.2770629,2772.20526
42.2805657,2663.99083
42.28582,2508.91898
42.2897607,2398.41853
42.2941393,2281.47598
42.3007072,2117.38889
42.307275,1966.41606
42.3138429,1827.84611
42.3204107,1700.85901
42.3247893,1622.20874
42.3313572,1512.59965
42.3357357,1444.7351
42.3401143,1380.75109
42.3444929,1320.41287
42.3488715,1263.49618
42.35325,1209.78794
42.3576286,1159.08655
42.3620072,1111.20192
42.3663858,1065.95532
42.3707643,1023.17908
42.3751429,982.716187
42.3795215,944.419852
42.3839,908.152962
42.3882786,873.787578
42.3970358,810.292212
42.4057929,753.073493
42.4145501,701.384733
42.4189286,677.408102
42.4276858,632.826365
42.4320643,612.090284
42.4408215,573.43268
42.4452001,555.404822
42.4539572,521.711039
42.4583358,505.958445
42.4670929,476.44585
42.4714715,462.614891
42.4802286,436.642789
42.4846072,424.443269
42.4933644,401.484618
42.4977429,390.677218
42.5065001,370.296292
42.5108786,360.682654
42.5196358,342.517401
42.5327715,317.680354
42.5415287,302.560391
42.5546644,281.786103
42.5634215,269.079529
42.5765572,251.543368
42.5853144,240.771083
42.5940715,230.664389
42.6028287,221.170457
42.6115858,212.241509
42.620343,203.834261
42.6291001,195.909433
42.6378573,188.431319
42.6466144,181.367413
42.6553715,174.688069
42.6728858,162.377096
42.6904001,151.30821
42.7079144,141.321446
42.7254287,132.28154
42.7341858,128.080041
42.7517001,120.250229
42.7692144,113.110435
42.7867287,106.58252
42.7954859,103.526567
42.8130002,97.7928445
42.8217573,95.1014638
42.8392716,90.038961
42.8480287,87.6567451
42.865543,83.1652631
42.8743002,81.0468851
42.9005716,75.1522479
42.926843,69.8737791
42.9531145,65.128918
42.9793859,60.8484225
42.9969002,58.2235117
43.0231716,54.591606
43.0406859,52.354765
43.0669574,49.2472327
43.0844716,47.3258519
43.1107431,44.6467561
43.1282574,42.9843942
43.1457717,41.4126436
43.163286,39.9250598
43.1983145,37.1793631
43.2158288,35.9109443
43.2508574,33.5603336
43.285886,31.431991
43.3209146,29.498831
43.3515646,27.9491894
43.3909717,26.1290035
43.4260003,24.6555296
43.469786,22.9817032
43.5135718,21.4718556
43.5354646,20.7718279
43.5792503,19.4701661
43.6011432,18.8644971
43.6449289,17.7345198
43.6668218,17.2070208
43.7106075,16.2198773
43.7325004,15.7576832
43.7762861,14.8903291
43.8200718,14.0922789
43.8419647,13.7169636
43.8857504,13.009704
43.951429,12.0465875
43.9952147,11.4623976
44.0608933,10.6622435
44.104679,10.1742007
44.1484648,9.71871726
44.1922505,9.29296679
44.2360362,8.89442255
44.2798219,8.52082028
44.3236077,8.17012619
44.3673934,7.84050938
44.4111791,7.53031804
44.4549648,7.23805886
44.4987506,6.96237913
44.5425363,6.70205118
44.586322,6.45595877
44.6301077,6.22308516
44.6957863,5.89655279
44.7833578,5.49943132
44.8709292,5.14085467
44.9585007,4.81600351
45.0460721,4.52078796
45.1336436,4.2517191
45.1774293,4.12603797
45.2650007,3.89071389
45.3087865,3.78047337
45.3963579,3.57349322
45.4401437,3.47627066
45.5277151,3.2932711
45.5715008,3.2071004
45.702858,2.9677977
45.8342152,2.75411439
45.9655724,2.56253066
46.0969295,2.39011024
46.184501,2.28457572
46.3158582,2.13880885
46.4034296,2.04918263
46.5347868,1.92486316
46.6223582,1.84811186
46.7537154,1.7412436
46.8412869,1.67502277
46.972644,1.58249737
47.0602155,1.52497208
47.1915726,1.44434258
47.2791441,1.39406021
47.454287,1.30099964
47.6294299,1.21688024
47.8045728,1.14059713
47.9797157,1.07121069
48.1548586,1.00791777
48.3300015,0.950028578
48.5051444,0.896948073
48.6802873,0.848160749
48.7678588,0.825234584
48.9376978,0.783321958
49.102233,0.745668393
49.205716,0.723350312
49.3808589,0.687780403
49.5560018,0.654753424
49.7311447,0.624034113
49.993859,0.581831805
50.2565734,0.543747011
50.5192878,0.50926447
50.7820021,0.477946889
51.0885022,0.444915225
51.3512165,0.419245825
51.6139309,0.395731038
51.8766452,0.37413829
52.0080024,0.363998468
52.2707168,0.344918072
52.5334311,0.327301651
52.9275026,0.303310551
53.2340027,0.286436326
53.4091456,0.277422522
53.7594314,0.260635325
54.1097172,0.245340685
54.2848601,0.238199125
54.6351459,0.224832852
54.9854317,0.21257787
55.3357175,0.201316253
55.6860033,0.190945313
55.8611462,0.18606535
56.211432,0.176865668
56.5617178,0.168352499
56.9120036,0.160460818
57.2622894,0.153133158
57.6125752,0.146318586
57.962861,0.13997184
58.3131468,0.134052596
58.6634326,0.128524847
59.0137184,0.123356364
59.5391471,0.11621485
59.8894329,0.1118244
60.2397187,0.107704151
60.8433053,0.101181077
61.4913742,0.0949034408
62.0487401,0.0900366244
62.5993088,0.0856606544
63.2518347,0.0809732954
63.6052863,0.0786408799
64.2306236,0.0748399636
64.7879895,0.0717771992
65.3317611,0.0690621378
65.8619384,0.0666582668
66.40571,0.0644291492
66.9494816,0.0624294513
67.4932532,0.0606525806
68.0370248,0.0590956314
68.5807964,0.0577597833
69.124568,0.05665094
69.3964538,0.0561850121
69.9402254,0.0554405795
70.483997,0.0549661462
71.0277686,0.0547954044
71.5715402,0.0549765297
71.9793689,0.0553834729
72.3871976,0.0560653463
72.7950263,0.057073467
73.202855,0.0584758231
73.4747408,0.0596735436
73.6106837,0.0603635681
73.8825695,0.0619512147
74.0185124,0.0628607184
74.2903982,0.0649462527
74.4263411,0.066138988
74.562284,0.0674446157
74.7661983,0.0696397824
74.9701127,0.0721593065
75.1060556,0.0740455323
75.3099699,0.0772322441
75.4592327,0.0798755905
75.6498272,0.0836963651
