energy [eV],cross section [b]
1e-05,0.002764654
1.0860824288437544e-05,0.0026528299131653665
1.1745025845894349e-05,0.002551019767208898
1.2652017275647128e-05,0.002457881473442904
1.358122594035346e-05,0.0023723095019827826
1.4532240538459426e-05,0.0022933722726201328
1.5504473677337858e-05,0.0022203034956636758
1.6497481446698797e-05,0.002152444897427731
1.7510829223216696e-05,0.002089236092751192
1.85447022481916e-05,0.002030163208306369
1.9598159031049405e-05,0.001974846094596048
2.0670848448328484e-05,0.0019229223679164261
2.1762425671955698e-05,0.001874076265659804
2.4001072873528995e-05,0.00178453717236343
2.6311629296827477e-05,0.0017043825160662433
2.8697014759294938e-05,0.0016320091701179764
3.1150432617650184e-05,0.00156642255198815
3.3670094253596255e-05,0.0015066723376686963
3.62542580727149e-05,0.001451982833057315
3.89016926972519e-05,0.0014017054260178072
4.161061110677984e-05,0.0013553110140695406
4.437967778452616e-05,0.001312347815377686
4.720758622299964e-05,0.0012724336256791113
5.011003848333875e-05,0.001235033324846636
5.306965439227962e-05,0.0012001013490349622
5.608537055788601e-05,0.0011673907980275804
5.915614337001467e-05,0.0011366876581952769
6.545933753703689e-05,0.0010805759174253523
7.197178653757578e-05,0.001030528390299112
7.868877671775458e-05,0.0009855637462992124
8.560265762026365e-05,0.0009449253629381894
9.270812056318675e-05,0.0009079924857437562
0.0001,0.0008742611
0.00010860821948132976,0.0008388994784489537
0.00011745021179588198,0.0008067044999316464
0.000126520103053917,0.0007772517668842809
0.00013581216695253393,0.0007501916863967712
0.00014532229053150324,0.0007252296719628246
0.0001550445999258301,0.0007021234054581418
0.00016497465608150517,0.0006806647256689023
0.00017510811281005396,0.0006606764258423608
0.00018544682254362222,0.000641996007137688
0.00019598137043396737,0.000624503257411663
0.00020670824527935474,0.0006080835823257755
0.0002176239988292884,0.000592637130184788
0.00024001043550187995,0.0005643224478946979
0.000263115967257221,0.0005389753660102227
0.0002869697924157381,0.0005160889359939016
0.00031150394471718635,0.0004953486465706014
0.00033670053809906135,0.0004764539814427033
0.00036254215671961,0.0004591596465182027
0.0003890164868990631,0.00044326053409215533
0.0004161056585030252,0.00042858932840932984
0.0004437963164320606,0.0004150031643924595
0.0004720753956690083,0.0004023811791360011
0.0005010999174511402,0.00039055415304812315
0.0005306960795827083,0.00037950767832420606
0.0005608532481848478,0.00036916367861080616
0.0005915609871897566,0.0003594544771381584
0.0006545929625753975,0.0003417103525263116
0.0007197175023681328,0.00032588389921460004
0.000786887470305682,0.00031166479410166666
0.0008560263618206506,0.000298813772768842
0.0009270810901903446,0.0002871345357996609
0.001,0.0002764677
0.0010860798813265508,0.00026528619523402274
0.0011744975051207415,0.00025510593521515905
0.0012651941401458006,0.0002457927392287237
0.0013581125303444156,0.00023723607619517014
0.0014532115515820234,0.00022934280546485576
0.0015504324712663717,0.00022203631174523897
0.0016497309036905812,0.00021525077875406557
0.001751063391396911,0.00020893017695852023
0.0018544484605994768,0.00020302312655488423
0.0019597919685001887,0.0001974916184216001
0.002067058806332412,0.000192299419214724
0.002176214494580304,0.00018741495686334995
0.0024000753674270525,0.0001784612800413558
0.002631127474363353,0.00017044598016517605
0.0028696628130252255,0.00016320876062635162
0.003115001737872201,0.00015665017474852954
0.0033669654001892008,0.00015067519896307764
0.0036253796516857047,0.00014520627054390674
0.003890121365230551,0.00014017853336926022
0.004161011846388984,0.0001355390811646404
0.004437917550918527,0.00013124273882794018
0.004720707834357677,0.00012725128835951538
0.005010952970949294,0.00012351121865828178
0.005306914892959307,0.0001200179759200695
0.0056084872656034165,0.00011674687135229703
0.005915565731528983,0.00011367650458279527
0.006545888818301433,0.00010806521799788707
0.007197139137975529,0.0001030603472867001
0.00786884535526654,9.856376243392442e-05
0.00856024242506942,9.449980339554454e-05
0.009270799489698424,9.080639610173668e-05
0.01,8.743314e-05
0.010813499695690202,8.408092672135998e-05
0.011647943588001104,8.101404585684768e-05
0.012502831222135047,7.819606288526779e-05
0.0133776740902114,7.559667614345504e-05
0.014272115532974508,7.319014298559517e-05
0.015185654604438627,7.095510104684654e-05
0.016117908237359334,6.887308057622052e-05
0.01706850104091739,6.692825326346737e-05
0.01803757319160053,6.510604917038324e-05
0.019024327033081434,6.339555998119103e-05
0.021049662163861532,6.0269392624462776e-05
0.0231422735578155,5.748067805983189e-05
0.0253,5.497558e-05
0.027096896612359544,5.312310613387579e-05
0.028934468163829854,5.1410054870267886e-05
0.030811854330998117,4.982060031144556e-05
0.03272821293043897,4.834129698716128e-05
0.03468290635890713,4.6960512308514666e-05
0.03667507178550892,4.566839944643434e-05
0.038704031475147074,4.445631903899915e-05
0.040769119912120365,4.331675372580709e-05
0.04500683478377922,4.122885719967535e-05
0.049382132751367,3.936165958701986e-05
0.05389095039200189,3.768054323775381e-05
0.058529343920845744,3.615797340399406e-05
0.0633011057673521,3.476964762529379e-05
0.06819605292922139,3.349967552841602e-05
0.07321123986333722,3.233292139831871e-05
0.07834379123926634,3.1256801024116964e-05
0.08359160949294071,3.0260626083044243e-05
0.08895174545992836,2.9335529618025508e-05
0.09442194523473554,2.847384670792792e-05
0.1,2.766901e-05
0.1085825563902356,2.655991524617631e-05
0.11739903834875157,2.5549456924748254e-05
0.12644365709146316,2.4624496440720618e-05
0.1357107638242626,2.3774198361993125e-05
0.14519630642129738,2.29894213678096e-05
0.15489447845617413,2.226264002561457e-05
0.16480089472343049,2.158738311556247e-05
0.1749112583907692,2.09581372099738e-05
0.18522744295829568,2.0369839437987604e-05
0.19574009705208206,1.9818747017038124e-05
0.2064457457801231,1.9301286800590188e-05
0.21734097430207583,1.881434344023764e-05
0.23968858175718785,1.7921346180742153e-05
0.262758421914526,1.712151527012846e-05
0.28657985337609576,1.639898195699231e-05
0.3110851024888915,1.5743917478991057e-05
0.3362564169716586,1.5146908101906799e-05
0.36207649492239785,1.4600264684608753e-05
0.38853313131458417,1.409755280985149e-05
0.41560853415454646,1.3633521828136796e-05
0.44328942457613757,1.320368526674079e-05
0.4715628021755908,1.2804245791773651e-05
0.5005863729973881,1.2429861727809856e-05
0.5301858311012667,1.2080103491622388e-05
0.5603505881245064,1.175251463884865e-05
0.5910702459278365,1.1444965167345112e-05
0.6541392026108115,1.0882738389047891e-05
0.7193184093519903,1.038109467053076e-05
0.7865610400351323,9.930251984787985e-06
0.8557906022310864,9.522666855498128e-06
0.9269541205681721,9.152146042314643e-06
1.0,8.813659e-06
1.0554131320971716,8.584526436054201e-06
1.111836941049057,8.368913365217098e-06
1.227651584908038,7.973529386445796e-06
1.3473244457278926,7.619387510474751e-06
1.4707393094783054,7.3001076688317305e-06
1.5978204956473752,7.010517637262328e-06
1.728447543557419,6.746543853527705e-06
1.8625351799238663,6.50478752235707e-06
2.0,6.282444e-06
2.158584892973874,6.059218143839663e-06
2.3213649057591863,5.853915986442815e-06
2.488252093612058,5.664364736080283e-06
2.659159945184482,5.488740692970145e-06
2.8340259941055437,5.325480048098699e-06
3.0127600092545967,5.173276733034221e-06
3.1952934024796185,5.030992377651451e-06
3.381558530665526,4.897644995091721e-06
3.571586287974017,4.772320531954496e-06
3.765227143762373,4.654338244180255e-06
4.16312667667272,4.43785060826234e-06
4.574850239694493,4.243790032654143e-06
5.0,4.068703e-06
5.553917446547513,3.882962541969589e-06
6.129092759264308,3.716466092181187e-06
6.72500849298509,3.5662274029777284e-06
7.341152039574343,3.429868994378537e-06
7.9772072705611725,3.3054355885352177e-06
8.632620668870763,3.1913769296450326e-06
9.307011022589306,3.0863831526134527e-06
10.0,2.989364e-06
11.096076533434182,2.8689123022762176e-06
12.237646406457674,2.7599427974691463e-06
13.423893170259328,2.660794392062546e-06
14.653985161186561,2.5701251928412927e-06
15.927466208175925,2.4868131413893804e-06
17.243379838756642,2.409962548688635e-06
18.601102198066737,2.3388053600482863e-06
20.0,2.272696e-06
50.0,1.738865e-06
100.0,1.584871e-06
200.0,1.623159e-06
500.0,1.979997e-06
1000.0,2.523735e-06
2000.0,3.373781e-06
5000.0,5.14976e-06
10000.0,7.197313e-06
20000.0,1.012202e-05
50000.0,1.597097e-05
100000.0,2.261925e-05
200000.0,3.214346e-05
300000.0,3.95723e-05
400000.0,4.592388e-05
500000.0,5.157902e-05
600000.0,5.672068e-05
700000.0,6.144647e-05
800000.0,6.581022e-05
900000.0,6.984095e-05
1000000.0,7.355302e-05
1200000.0,8.003886e-05
1400000.0,8.52704e-05
1600000.0,8.924256e-05
1800000.0,9.198105e-05
2000000.0,9.355677e-05
2200000.0,9.408404e-05
2400000.0,9.370892e-05
2600000.0,9.259373e-05
2800000.0,9.090219e-05
3000000.0,8.878798e-05
3500000.0,8.249575e-05
4000000.0,7.590883e-05
4500000.0,6.98504e-05
5000000.0,6.460918e-05
6000000.0,5.640888e-05
7000000.0,5.058396e-05
8000000.0,4.635118e-05
9000000.0,4.317882e-05
10000000.0,4.073278e-05
11000000.0,3.880358e-05
12000000.0,3.724527e-05
13000000.0,3.594054e-05
14000000.0,3.47981e-05
15000000.0,3.375147e-05
16000000.0,3.275154e-05
17000000.0,3.176122e-05
18000000.0,3.075311e-05
19000000.0,2.970866e-05
20000000.0,2.861763e-05
