energy [eV],cross section [b]
1e-05,20579.0518
1.05989175e-05,19989.1728
1.14972936e-05,19192.3473
1.23956698e-05,18483.7988
1.31380681e-05,17953.9805
1.38804664e-05,17467.2584
1.49940639e-05,16806.1216
1.58253893e-05,16358.7564
1.67456417e-05,15902.9218
1.76658941e-05,15483.1865
1.85861466e-05,15095.0242
2.01869873e-05,14484.1603
2.13277018e-05,14091.5078
2.24684164e-05,13729.151
2.43161269e-05,13197.2483
2.6437115e-05,12656.8122
2.85581031e-05,12177.7615
3.1017837e-05,11684.9616
3.27705749e-05,11368.1987
3.53996817e-05,10937.9257
3.73623687e-05,10646.7772
3.95350047e-05,10350.1172
4.27939587e-05,9948.23708
4.49665947e-05,9704.94671
4.76597225e-05,9426.78034
5.03528504e-05,9171.24087
5.30459782e-05,8935.41826
5.57391061e-05,8716.90085
5.90774185e-05,8467.0588
6.4084887e-05,8129.56592
6.90923556e-05,7829.46355
7.52994483e-05,7499.864
8.1506541e-05,7208.67312
8.82093052e-05,6929.41904
9.333871e-05,6736.35572
0.000101032817,6474.8171
0.000109341342,6224.00006
0.000115699583,6050.597
0.000122057824,5890.92712
0.000128416065,5743.2685
0.000135535918,5590.41714
0.000143417383,5434.67297
0.000151298849,5291.26361
0.000159180314,5158.64247
0.000172890651,4949.93384
0.000182660255,4815.7808
0.000192429859,4691.97946
0.000208254503,4510.25351
0.000226419621,4325.61444
0.00024458474,4161.94982
0.000265651033,3993.59035
0.000280662287,3885.3734
0.000303179168,3738.37961
0.000319988522,3638.91628
0.000338595977,3537.57141
0.000357203432,3444.25382
0.000375810887,3357.957
0.000396647207,3268.62636
0.000419712394,3177.60619
0.00044277758,3093.79583
0.000465842767,3016.29125
0.000491670782,2936.06227
0.000534557048,2815.92591
0.000577443313,2709.43894
0.000627179001,2599.89979
0.0006803394,2496.37101
0.000733499799,2404.31587
0.000777430382,2335.48429
0.000843326257,2242.50887
0.000909222133,2159.8384
0.000963677034,2098.02455
0.00101813193,2041.24134
0.00109981429,1964.11452
0.00116079198,1911.92898
0.00122829248,1858.75836
0.00129579298,1809.80131
0.00136329348,1764.52945
0.00148071511,1693.28911
0.0015643865,1647.50099
0.00164805789,1605.24871
0.00178358742,1543.23238
0.00193916185,1480.22884
0.00209473629,1424.38891
0.00227515772,1366.95446
0.00240372101,1330.04149
0.00259656594,1279.90777
0.00274052899,1245.98915
0.0028998918,1211.43289
0.00313893601,1164.628
0.00329829881,1136.29806
0.00349583969,1103.9119
0.00369338056,1074.16513
0.00389092144,1046.71817
0.00421089488,1006.43776
0.0045781926,965.523201
0.00506792289,918.069609
0.00552321302,879.757342
0.00597850314,845.922912
0.00647015076,813.488685
0.00703451337,780.549247
0.00759887597,751.365653
0.00802018526,731.626848
0.00848656209,711.522207
0.00918612735,684.300687
0.00965250418,667.829841
0.0102306095,649.006555
0.0108087148,631.723279
0.0113868202,615.781743
0.0123232256,592.396933
0.013398126,568.658362
0.0148313266,541.146727
0.0161637377,518.95373
0.0174961487,499.370746
0.0189349603,480.614382
0.0205865731,461.584337
0.0216876483,450.138887
0.0234165426,433.845444
0.0253,418.059346
0.0267740746,406.902734
0.0282481492,396.645788
0.0299399802,385.836925
0.0316318111,375.92368
0.0333236421,366.79054
0.0350154731,358.341805
0.0371126109,348.700184
0.0392097487,339.861591
0.0413068865,331.722403
0.0447020122,319.814403
0.0479505489,309.66136
0.0499010977,304.062944
0.0538021955,293.825808
0.0570245029,286.204518
0.061857964,275.955254
0.0666914251,266.891459
0.070685691,260.148802
0.0746799569,253.983899
0.0826684887,243.101525
0.0876196488,237.166014
0.0925708089,231.747975
0.102473129,222.20832
0.108610424,217.020622
0.114747718,212.296489
0.127022307,204.00982
0.134629895,199.52351
0.142237483,195.452847
0.157452658,188.353647
0.169093279,183.698248
0.186479838,177.745455
0.206862376,171.984678
0.218551634,169.161437
0.241930152,164.36499
0.258365076,161.560143
0.2748,159.14545
0.293616471,156.792356
0.317849482,154.313495
0.353771189,151.584022
0.380466021,150.162141
0.407096692,149.178842
0.442890075,148.450416
0.492896692,148.413012
0.5465,149.469412
0.594588031,151.278718
0.6466,154.09083
0.691605494,157.220228
0.7467,161.931964
0.8039,167.883265
0.854506761,174.103784
0.904,181.126408
0.9612,190.518246
0.9898,195.778607
1.0184,201.450121
1.047,207.563284
1.0756,214.152551
1.12156938,225.841177
1.1471,232.976536
1.1757,241.573273
1.2043,250.865615
1.2329,260.921395
1.2758,277.608117
1.3044,289.933975
1.32644852,300.170517
1.34849704,311.106974
1.3759,325.768959
1.4045,342.473547
1.4331,360.785551
1.45455,375.697534
1.48315,397.340866
1.51175,421.249055
1.53892,446.352464
1.56466,472.583019
1.5904,501.52783
1.619,537.342904
1.63044,552.878362
1.6476,577.619221
1.66476,604.24022
1.67700431,624.491602
1.69336,653.328293
1.7048,674.813014
1.71624,697.470153
1.7334,733.846473
1.74484,759.83312
1.762,801.690249
1.77344,831.692705
1.7906,880.190757
1.80776,933.360924
1.82492,991.823961
1.84208,1056.30728
1.85924,1127.66764
1.8764,1206.91965
1.89356,1295.27187
1.91072,1394.17281
1.91644,1429.77605
1.92788,1505.37018
1.9336,1545.52295
1.94504,1630.98766
1.95076,1676.49801
1.9622,1773.62572
1.96792,1825.48828
1.97936,1936.49487
1.9908,2058.24944
2.00224,2192.17899
2.01082,2301.60994
2.02226,2461.03781
2.0337,2637.97613
2.04514,2835.06361
2.05086,2942.12411
2.05658,3055.44847
2.0623,3175.52961
2.06802,3302.90915
2.07430059,3451.8896
2.07946,3582.00885
2.08518,3735.11191
2.0909,3898.29522
2.09662,4072.44858
2.10234,4258.56001
2.10806,4457.72869
2.11664,4783.6829
2.12236,5021.17385
2.12808,5276.68154
2.1338,5552.02676
2.13666,5697.7689
2.14238,6006.7922
2.1481,6341.2775
2.15096,6518.9227
2.15668,6896.92438
2.1624,7308.04929
2.16526,7527.20678
2.17098,7995.34358
2.17384,8245.48518
2.17956,8781.129
2.18242,9068.05392
2.18814,9684.05254
2.191,10014.8748
2.19672,10727.0196
2.19958,11110.4981
2.20387,11723.3135
2.20816,12385.2051
2.21245,13101.0814
2.21674,13876.3953
2.2196,14429.255
2.22246,15013.1612
2.22675,15951.8438
2.22961,16622.8261
2.23247,17332.8122
2.23676,18476.6945
2.23962,19295.9952
2.24248,20164.1641
2.24534,21084.3737
2.2482,22059.9409
2.25106,23094.3096
2.25392,24191.0256
2.25678,25353.6999
2.25964,26585.9592
2.2625,27891.3792
2.26536,29273.3972
2.26822,30735.2001
2.27251,33083.4658
2.2768,35624.2137
2.281376,38548.8248
2.283664,40092.6862
2.28824,43334.0843
2.295104,48521.4614
2.307688,58394.1425
2.312264,61755.2628
2.315696,64054.5231
2.317984,65443.2483
2.320272,66692.5343
2.32256,67782.5106
2.324848,68694.808
2.327136,69413.2688
2.329424,69924.6173
2.331712,70219.044
2.3341144,70288.3398
2.336288,70137.7607
2.338576,69762.9443
2.342008,68800.4596
2.344296,67908.6988
2.346584,66834.4477
2.348872,65595.6066
2.35116,64211.812
2.354592,61909.6373
2.359168,58526.7886
2.375184,45841.4134
2.37976,42400.3898
2.382048,40749.6254
2.386624,37605.6712
2.390056,35393.3225
2.39263,33817.8879
2.39549,32151.531
2.39835,30572.451
2.40264,28362.5753
2.4055,26990.9155
2.40836,25696.6225
2.41265,23892.3123
2.41694,22241.3508
2.42123,20731.1727
2.42552,19349.6163
2.42981,18085.164
2.4341,16927.0752
2.43696,16209.1807
2.44125,15206.7712
2.44411,14584.4436
2.4484,13714.0613
2.45126,13172.7637
2.45555,12414.3512
2.45841,11941.8117
2.4627,11278.4916
2.46556,10864.4088
2.47128,10097.61
2.477,9404.51997
2.48272,8776.53465
2.48844,8206.18344
2.49416,7686.97124
2.49988,7213.24176
2.5056,6780.05994
2.51132,6383.11125
2.51418,6197.02425
2.5199,5847.48413
2.52562,5525.57109
2.53134,5228.54259
2.5342,5088.59192
2.53992,4824.43797
2.54278,4699.73073
2.55136,4352.36054
2.55994,4040.92792
2.56852,3760.75644
2.5771,3507.88971
2.58568,3278.96527
2.59426,3071.11293
2.59998,2943.02172
2.60856,2764.99396
2.61428,2654.88612
2.62286,2501.32994
2.62858,2406.04266
2.63716,2272.73806
2.64288,2189.76544
2.65432,2036.54971
2.66576,1898.47186
2.67148,1834.50313
2.68292,1715.6557
2.69436,1607.71031
2.7058,1509.39043
2.71724,1419.59923
2.72868,1337.39034
2.74012,1261.94392
2.75156,1192.54706
2.763,1128.57759
2.77444,1069.49065
2.78588,1014.80753
2.79732,964.10635
2.81448,894.716615
2.82592,852.429679
2.83736,812.99256
2.85452,758.646137
2.87168,709.432527
2.88884,664.732224
2.906,624.015841
2.92316,586.828896
2.94032,552.779506
2.95748,521.528361
2.97464,492.780523
2.98608,474.877579
3.00896,441.797508
3.0204,426.500597
3.04328,398.129088
3.05472,384.961273
3.07188,366.364638
3.08618,351.846297
3.10334,335.500613
3.12908,312.974339
3.14702108,298.547151
3.15924216,289.264946
3.18368431,271.913124
3.2063,257.168194
3.2349,240.124397
3.2492,232.209859
3.2778,217.47321
3.2921,210.607612
3.3207,197.784869
3.335,191.793052
3.3636,180.57081
3.3779,175.312478
3.4065,165.438552
3.4208,160.800297
3.4494,152.069963
3.4637,147.959332
3.4923,140.205038
3.5066,136.546072
3.5352,129.629655
3.5781,120.166226
3.6067,114.400783
3.6496,106.473063
3.6782,101.620227
3.7211,94.9177446
3.7497,90.7973858
3.7926,85.0837974
3.8212,81.5578137
3.8498,78.238111
3.8784,75.1092
3.907,72.1570048
3.9356,69.3687125
3.96959498,66.2515592
3.9928,64.2381155
4.05,59.6354907
4.1072,55.4921054
4.1501,52.6507043
4.193,50.0136708
4.2502,46.7834266
4.3074,43.8445877
4.3646,41.1638205
4.3932,39.911072
4.4504,37.5647394
4.479,36.4653637
4.5362,34.4011387
4.5648,33.4315753
4.622,31.6068783
4.6506,30.7478777
4.7078,29.1277887
4.7364,28.363505
4.8222,26.2364745
4.89181469,24.6755296
4.9652,23.1709704
5.0224,22.0883397
5.1082,20.5966042
5.1654,19.6817132
5.2512,18.4159517
5.3084,17.6365924
5.3942,16.5543512
5.4514,15.8856079
5.5086,15.2553961
5.5658,14.6608903
5.6516,13.8305102
5.7088,13.3144905
5.766,12.8260996
5.8232,12.3634551
5.9376,11.5086383
5.9948,11.1134199
6.06373198,10.6631072
6.1664,10.040676
6.2808,9.4083457
6.3952,8.83327867
6.5096,8.30897099
6.624,7.8298048
6.6812,7.60560156
6.7956,7.18521482
6.91,6.79894467
7.0244,6.44332578
7.0816,6.2760452
7.196,5.96081578
7.2532,5.81223873
7.40480049,5.44501691
7.55640098,5.11266735
7.7108,4.80579602
7.8824,4.49770274
8.054,4.2201304
8.2256,3.9693836
8.3972,3.74230641
8.5688,3.5361918
8.6546,3.44025388
8.8262,3.26131198
8.912,3.17783938
9.0836,3.02183597
9.20034185,2.92341513
9.37194185,2.78905903
9.5412,2.66751443
9.77,2.5187329
9.9988,2.3858171
10.1132,2.32471799
10.342,2.21221275
10.5708,2.11144306
10.7996,2.02116461
11.0284,1.94031125
11.3301873,1.84654926
11.5491493,1.78677902
11.8292,1.71944357
12.1724,1.64952097
12.4012,1.6099172
12.63,1.57549015
12.8588,1.54593418
13.0876,1.52099503
13.2895,1.50265596
13.4985,1.48716648
13.7715,1.47212968
14.1119721,1.46142531
14.454,1.45955816
14.727,1.46449336
15.091,1.48017184
15.364,1.49903612
15.546,1.51516781
15.819,1.54500417
16.001,1.56887443
16.183,1.59613824
16.456,1.64387128
16.638,1.68062345
16.82,1.72166828
17.093,1.79206232
17.275,1.84548309
17.457,1.90466521
17.7455718,2.01174084
17.912,2.08179268
18.094,2.1662522
18.276,2.25984709
18.458,2.36369246
18.549,2.41985894
18.731,2.54160083
18.913,2.67730936
19.095,2.82896766
19.277,2.998941
19.368,3.09166136
19.55,3.29460845
19.641,3.40577721
19.7775,3.5861682
19.914,3.78481227
20.0505,4.00416531
20.187,4.24711738
20.3235,4.51708803
20.46,4.81814705
20.5965,5.15516861
20.733,5.53402993
20.7785,5.67080625
20.8695,5.96186953
20.915,6.11682324
21.006,6.44742673
21.0515,6.62390067
21.1425,7.00149278
21.2335,7.41544007
21.279,7.63751767
21.37,8.11525507
21.4155,8.37243727
21.5065,8.92773978
21.552,9.22781709
21.643,9.87840212
21.71125,10.4155467
21.7795,11.0004229
21.84775,11.6388591
21.89325,12.0975281
21.9362062,12.5571651
22.007,13.3768211
22.07525,14.2491196
22.1435,15.213506
22.189,15.9141321
22.2345,16.6662021
22.30275,17.9022489
22.34825,18.807025
22.39375,19.7844852
22.4165,20.3029321
22.462,21.4047803
22.5075,22.6015198
22.553,23.9043795
22.57575,24.5995729
22.62125,26.0864969
22.66675,27.7158261
22.71225,29.506357
22.75775,31.4800912
22.80325,33.6629145
22.826,34.842091
22.8533,36.342231
22.87605,37.6689051
22.90335,39.3606925
22.9261,40.8605271
22.9534,42.7780454
22.9898,45.5552554
23.008,47.0478025
23.0444,50.2646783
23.0717,52.9016625
23.099,55.7542067
23.1263,58.8464323
23.1536,62.2059231
23.1809,65.8643375
23.2082,69.8581504
23.2355,74.2295562
23.2628,79.0275765
23.2901,84.309423
23.3174,90.1421895
23.3447,96.6049625
23.3629,101.30907
23.3811,106.366526
23.4084,114.695544
23.4266,120.804956
23.4448,127.416477
23.4539,130.927803
23.4721,138.40039
23.4903,146.531182
23.5085,155.399247
23.5267,165.095786
23.5449,175.726419
23.5631,187.413974
23.5813,200.30193
23.5995,214.558669
23.6086,222.26104
23.62225,234.610376
23.63135,243.419466
23.64045,252.729866
23.64955,262.579825
23.6632,278.459216
23.6723,289.850486
23.68595,308.277609
23.69505,321.543222
23.7087,343.082615
23.7178,358.648532
23.73145,384.02626
23.74055,402.443395
23.7542,432.60407
23.76785,466.208202
23.7815,503.784702
23.78605,517.29861
23.79515,545.964272
23.7997,561.173536
23.8088,593.502717
23.81335,610.691943
23.82245,647.310314
23.827,666.823409
23.8361,708.488925
23.84065,730.743539
23.84975,778.37897
23.85885,830.606709
23.86795,888.000696
23.87705,951.220098
23.88615,1021.02306
23.892975,1078.21606
23.902075,1161.71984
23.906625,1206.8888
23.911175,1254.53906
23.915725,1304.83698
23.920275,1357.96084
23.924825,1414.10161
23.929375,1473.46363
23.933925,1536.26522
23.938475,1602.73932
23.943025,1673.1339
23.947575,1747.71228
23.952125,1826.75321
23.95895,1954.32882
23.9635,2045.84347
23.970325,2193.63071
23.974875,2299.6612
23.9817,2470.83046
23.988525,2657.57684
23.99535,2860.99557
24.002175,3082.03286
24.006725,3239.52939
24.01082,3388.3232
24.01628,3597.08906
24.01992,3742.74018
24.0272,4048.77527
24.03812,4539.25104
24.05814,5475.81557
24.06542,5796.04209
24.07088,6015.78453
24.07452,6148.9065
24.07816,6269.04363
24.0818,6374.30962
24.08544,6462.95581
24.08908,6533.43823
24.09272,6584.48129
24.09636,6615.13348
24.1,6624.81068
24.10364,6613.32347
24.10728,6580.88623
24.11092,6528.10703
24.11456,6455.95934
24.1182,6365.73793
24.12184,6259.00262
24.12548,6137.51425
24.12912,6003.16747
24.13458,5781.83404
24.14186,5459.94455
24.16188,4521.15186
24.16916,4190.28841
24.17644,3875.19373
24.18008,3724.64901
24.18736,3438.8149
24.191,3303.7736
24.197825,3064.85215
24.202375,2915.7973
24.2092,2707.07733
24.216025,2515.38295
24.22285,2339.64591
24.229675,2178.71244
24.2365,2031.40904
24.243325,1896.58627
24.25015,1773.14641
24.256975,1660.05948
24.2638,1556.37122
24.270625,1461.20566
24.27745,1373.76407
24.282,1319.39995
24.288825,1243.25558
24.293375,1195.82955
24.3002,1129.28043
24.30475,1087.75235
24.31385,1010.88568
24.3184,975.296479
24.3275,909.242792
24.3366,849.358011
24.3457,794.937038
24.3548,745.366517
24.3639,700.112031
24.373,658.707079
24.3821,620.743632
24.3912,585.86404
24.4003,553.754128
24.4094,524.137295
24.4185,496.769472
24.43215,459.469264
24.44125,436.832424
24.45035,415.789665
24.464,386.906159
24.47765,360.871813
24.4913,337.330839
24.50495,315.980262
24.5186,296.560964
24.53225,278.850421
24.54135,267.896846
24.555,252.620791
24.56865,238.597218
24.5823,225.694557
24.5914,217.658143
24.6096,202.806398
24.6187,195.937465
24.6369,183.195283
24.6551,171.644129
24.6642,166.269775
24.6824,156.24433
24.7006,147.090814
24.7097,142.810033
24.7279,134.785867
24.7461,127.413976
24.7643,120.62603
24.7825,114.36236
24.8007,108.570684
24.8189,103.205039
24.8371,98.2248956
24.8553,93.5944046
24.8735,89.2817691
24.9008,83.3477795
24.919,79.7126461
24.9372,76.3089505
24.9645,71.5960195
24.9827,68.691342
25.0009,65.9590684
25.0282,62.155135
25.0555,58.6696585
25.0828,55.4682082
25.1192,51.5902841
25.1374,49.801552
25.1738,46.4914364
25.192,44.9584225
25.2284,42.1108343
25.2466,40.787194
25.2739,38.9155054
25.29665,37.4522655
25.32395,35.8025962
25.3558,34.0119348
25.39675,31.9002489
25.44225,29.7764901
25.48775,27.8579436
25.53325,26.1190921
25.57875,24.5382573
25.62425,23.0969278
25.66975,21.7792209
25.71525,20.5714474
25.738,20.0050193
25.7835,18.9404243
25.829,17.9589744
25.8745,17.0522684
25.89725,16.6246058
25.9655,15.4345012
26.03375,14.3686817
26.102,13.4105066
26.17025,12.5460261
26.2385,11.7634762
26.284,11.2823033
26.35225,10.6148736
26.4205,10.0059158
26.48875,9.44884175
26.53425,9.10344283
26.6025,8.62058505
26.648,8.32023538
26.739,7.76598836
26.7845,7.51001441
26.8755,7.0358045
26.921,6.81596247
26.98925,6.50576169
27.0575,6.21713059
27.103,6.0357341
27.2121345,5.63320419
27.3212689,5.27169774
27.4215,4.97128327
27.5125,4.72171688
27.6035,4.49188177
27.6945,4.27981416
27.7855,4.08379111
27.8765,3.90229615
27.9675,3.73399053
28.0585,3.57768905
28.1495,3.43233958
28.2405,3.29700584
28.3315,3.17085262
28.468,2.99722442
28.559,2.8909233
28.65,2.79150964
28.7865,2.6541966
28.8775,2.56986963
28.9685,2.49084659
29.105,2.38148317
29.287,2.25116401
29.469,2.13662772
29.651,2.03612463
29.742,1.99067722
29.924,1.9086252
30.035,1.86401298
30.1525,1.82100141
30.3175,1.76754697
30.455,1.72891117
30.62,1.68934502
30.84,1.6477554
30.95,1.63166578
31.17,1.60889759
31.335,1.60020491
31.5,1.59898269
31.665,1.60564436
31.83,1.62077339
31.995,1.64515618
32.16,1.67982684
32.325,1.72612825
32.49,1.78579549
32.6,1.83408104
32.655,1.86107072
32.765,1.92132833
32.82,1.95486331
32.93,2.02951123
33.04,2.11546441
33.095,2.16319993
33.205,2.26942033
33.26,2.32847713
33.315,2.39193159
33.3975,2.49617971
33.4525,2.57234055
33.535,2.6977913
33.59,2.7897152
33.645,2.88901599
33.7,2.99642327
33.774025,3.15524944
33.8375,3.30609295
33.8925,3.44913257
33.9475,3.604982
34.0025,3.77512777
34.0575,3.96128125
34.1125,4.16542062
34.1675,4.38984233
34.195,4.51047902
34.25,4.77048594
34.305,5.05836325
34.36,5.37813153
34.415,5.73456701
34.4425,5.92827671
34.48375,6.24047809
34.51125,6.46437664
34.53875,6.70208106
34.56625,6.95473468
34.6075,7.36454765
34.635,7.66041018
34.6625,7.9762863
34.69,8.31400505
34.73125,8.86607332
34.75875,9.2678823
34.8,9.92806262
34.8275,10.4111169
34.86875,11.2093595
34.89625,11.7969642
34.91,12.109256
34.9375,12.7743575
34.965,13.4988121
34.97875,13.8855196
35.00625,14.7129422
35.03375,15.6200445
35.0475,16.1067005
35.075,17.1536175
35.08875,17.7172133
35.11625,18.9341178
35.1355,19.8646634
35.152,20.7196998
35.1685,21.6327991
35.1905,22.9499447
35.207,24.0204893
35.229,25.5714218
35.251,27.2811523
35.273,29.1720551
35.295,31.270579
35.306,32.4072998
35.3225,34.2341706
35.3335,35.5405985
35.3445,36.9243409
35.3555,38.3915992
35.3665,39.9492075
35.3775,41.6047104
35.3885,43.3664544
35.3995,45.2436908
35.416,48.2988877
35.427,50.5124046
35.438,52.8828336
35.449,55.4252888
35.4655,59.5992151
35.4765,62.6507298
35.482,64.2654957
35.493,67.688778
35.504,71.3938567
35.5095,73.3617714
35.5205,77.5501443
35.5315,82.1079814
35.537,84.5390747
35.548,89.7364611
35.55625,93.9551373
35.5645,98.4777545
35.57275,103.33394
35.581,108.556983
35.58925,114.184383
35.5975,120.258496
35.60575,126.827303
35.614,133.945316
35.62225,141.674654
35.6305,150.086338
35.63875,159.261834
35.647,169.294917
35.65525,180.293931
35.66075,188.224473
35.66625,196.681903
35.6745,210.459627
35.68,220.450322
35.6855,231.155711
35.691,242.643896
35.6965,254.991047
35.702,268.282539
35.7075,282.614266
35.713,298.094172
35.7185,314.844034
35.724,333.001539
35.7295,352.722712
35.735,374.18476
35.73775,385.630585
35.741875,403.770351
35.747375,429.930531
35.750125,443.932349
35.75425,466.192135
35.757,481.929783
35.761125,506.994639
35.763875,524.747874
35.768,553.07575
35.77075,573.177743
35.774875,605.314536
35.779,640.041829
35.783125,677.620017
35.78725,718.338576
35.791375,762.519041
35.7955,810.518044
35.799625,862.730286
35.80375,919.591218
35.807875,981.579133
35.812,1049.21618
35.81475,1097.7234
35.8175,1149.16929
35.821625,1232.25359
35.824375,1291.86592
35.827125,1355.08398
35.83125,1457.09735
35.834,1530.17216
35.83675,1607.50485
35.8395,1689.24966
35.843625,1820.40232
35.8472,1942.50803
35.8505,2062.15745
35.8538,2188.25547
35.8582,2365.62039
35.8626,2551.77772
35.8747,3079.35989
35.8791,3259.94094
35.8824,3383.95347
35.8846,3459.13705
35.8868,3527.03945
35.889,3586.59708
35.8912,3636.82295
35.8934,3676.84443
35.8956,3705.9392
35.8978,3723.56672
35.90011,3729.37132
35.9022,3723.30516
35.9044,3705.41888
35.9066,3676.07087
35.9088,3635.80419
