energy [eV],cross section [b]
1e-05,6.29993408
1.08983762e-05,6.03469202
1.14972936e-05,5.87541027
1.20962111e-05,5.72810978
1.31380681e-05,5.49629785
1.42516656e-05,5.27719578
1.53652631e-05,5.08236699
1.62855155e-05,4.93668333
1.72057679e-05,4.80284971
1.85861466e-05,4.62105729
2.01869873e-05,4.43404689
2.13277018e-05,4.31383976
2.36091309e-05,4.10011508
2.5730119e-05,3.92749061
2.7144111e-05,3.82382709
2.85581031e-05,3.72796119
3.01414681e-05,3.6287234
3.1894206e-05,3.52760683
3.45233128e-05,3.39062569
3.73623687e-05,3.25925911
4.06213227e-05,3.12578475
4.38802767e-05,3.00747087
4.63131586e-05,2.92741245
4.90062865e-05,2.84583834
5.30459782e-05,2.73533111
5.74082623e-05,2.62935332
6.07465747e-05,2.55608483
6.4084887e-05,2.48861869
6.74231994e-05,2.42622739
7.11613865e-05,2.3616416
7.52994483e-05,2.29583307
8.1506541e-05,2.20668321
8.56446028e-05,2.15271351
9.07740076e-05,2.09100705
9.84681147e-05,2.00765212
0.000106162222,1.93353171
0.000115699583,1.85212558
0.000122057824,1.80324001
0.000131595185,1.73666629
0.000139476651,1.68688565
0.000151298849,1.61964048
0.000163121047,1.55984509
0.000172890651,1.51513296
0.000182660255,1.47405776
0.000192429859,1.43615174
0.000202199464,1.40102728
0.000214309543,1.36086759
0.000232474661,1.3066187
0.00024458474,1.273861
0.000258145406,1.2399511
0.000280662287,1.18917234
0.000303179168,1.14416121
0.00032929225,1.09785813
0.000357203432,1.05409378
0.000385114614,1.01517788
0.000408179801,0.986078437
0.00044277758,0.946770048
0.00047737536,0.911816459
0.000505966204,0.88567984
0.000534557048,0.861669203
0.000563147891,0.839511127
0.000591738735,0.818979018
0.000627179001,0.795503561
0.000662619267,0.773937625
0.000698059533,0.754035629
0.00075546509,0.724821509
0.000821360966,0.695138662
0.000887256841,0.668827306
0.000963677034,0.641760749
0.00104535938,0.61617822
0.00112704174,0.593429872
0.00119454223,0.576419752
0.00126204273,0.560793258
0.00136329348,0.539567079
0.00148071511,0.517731661
0.0015643865,0.503696234
0.00173172928,0.478741684
0.00188730371,0.458586028
0.00199102,0.446482273
0.00209473629,0.435288976
0.00221087608,0.423701986
0.00233943937,0.41189564
0.0025322843,0.395901773
0.00274052899,0.380563481
0.0029795732,0.364979111
0.00321861741,0.35116489
0.00339706925,0.341817354
0.00359461013,0.332292862
0.00389092144,0.319390195
0.00421089488,0.307016406
0.00445576003,0.298461717
0.00470062517,0.290584512
0.00494549032,0.283299848
0.00521968627,0.275758973
0.00552321302,0.268075349
0.00597850314,0.257666484
0.00628202989,0.251365162
0.00665827163,0.244160539
0.00722263423,0.234428352
0.00778699684,0.225774383
0.00848656209,0.216269808
0.00895293893,0.210562195
0.00965250418,0.202789441
0.0102306095,0.196977374
0.0110977675,0.189126299
0.0119649255,0.18214505
0.0126815258,0.176924835
0.013398126,0.172129261
0.0141147263,0.167703715
0.0148313266,0.163602936
0.0157196006,0.158914323
0.0166078747,0.154607112
0.0174961487,0.150632252
0.0183844228,0.146949091
0.0194854979,0.142737964
0.0211371107,0.137049503
0.0227887235,0.131991299
0.0246721809,0.126854904
0.0267740746,0.121775576
0.0282481492,0.118556921
0.0299399802,0.115159907
0.0324777266,0.110571186
0.0350154731,0.106490901
0.0371126109,0.103439908
0.0392097487,0.100637128
0.0413068865,0.0980506352
0.0434040243,0.0956539754
0.0460035671,0.0929137906
0.0486031099,0.090396541
0.0512026527,0.0880735538
0.0538021955,0.0859210671
0.0570245029,0.0834600637
0.061857964,0.0801357604
0.0666914251,0.0771798414
0.072682824,0.0739334915
0.0786742228,0.0710655488
0.0851440687,0.068315277
0.0900952288,0.0664139337
0.097521969,0.0638383233
0.105541776,0.0613684154
0.111679071,0.0596609126
0.117816366,0.0580886999
0.12395366,0.0566348128
0.130826101,0.0551298569
0.138433689,0.0535964871
0.146041277,0.0521846251
0.153648865,0.0508790342
0.162167716,0.0495275983
0.17159783,0.048150664
0.185743002,0.0462855054
0.201017746,0.044496981
0.218551634,0.0426799699
0.236085522,0.0410695409
0.256419771,0.0394131092
0.27090939,0.0383485149
0.292643819,0.0369026115
0.317849482,0.0354154532
0.335810335,0.0344596804
0.371732042,0.0327606659
0.393995723,0.0318265678
0.416259404,0.0309685862
0.460786766,0.029443479
0.502182752,0.0282120355
0.529780076,0.0274727194
0.5573774,0.0267891502
0.605384793,0.0257136824
0.65669789,0.0246975429
0.708010987,0.0237943106
0.771617009,0.0228027041
0.814021023,0.0222074598
0.877627044,0.0213971489
0.93018966,0.0207914937
1.00903358,0.0199737453
1.0615962,0.0194801936
1.12045495,0.0189694902
1.18560983,0.0184493546
1.25076471,0.0179706396
1.3159196,0.0175281466
1.38887896,0.0170703233
1.51002472,0.0163852402
1.67155241,0.0155912049
1.82172069,0.0149506177
1.97188898,0.014385318
2.13404906,0.0138438311
2.32019271,0.0132943872
2.50633636,0.0128080499
2.64529675,0.0124793815
2.79912177,0.0121448731
3.02985929,0.0116924005
3.18368431,0.0114189021
3.37436072,0.0111066257
3.56503713,0.0108201906
3.75571354,0.0105562644
3.94638996,0.0103120865
4.18274614,0.010033395
4.41910232,0.00977787615
4.65545851,0.00954254042
5.03830435,0.00919799355
5.47777334,0.00884915673
6.06373198,0.00844623164
6.60848322,0.0081224475
7.15323446,0.00783782652
7.74148717,0.00756632548
8.19165761,0.00737956413
8.86691326,0.00712795569
9.3170837,0.00697650657
9.87510011,0.00680424576
10.4331165,0.00664692941
11.5491493,0.0063697406
12.240848,0.0062188803
12.9325468,0.00608141163
14.3159442,0.00584003466
15.6020545,0.00564839718
16.8881649,0.00548203364
18.808385,0.00527111474
19.8711983,0.00517016131
21.9968248,0.00499537794
23.3142531,0.00490226163
25.9491096,0.0047441048
28.8995784,0.00460261275
30.5326189,0.0045373464
33.7987,0.00442949544
35.8229632,0.00437553383
39.8714895,0.0042918903
42.6718145,0.00425010233
45.0,0.00422395663
48.4662958,0.00419785083
51.9325917,0.00418548432
56.3,0.00418744413
60.336963,0.00420522665
65.986963,0.00425429785
70.425,0.00431213279
76.075,0.0044107037
78.9,0.0044709446
82.3968449,0.00455632129
87.5989483,0.00470751781
90.2,0.00479517727
94.5561154,0.00496264574
98.9122307,0.005160242
102.63,0.00535770717
106.02,0.00556602753
108.6529,0.00575031722
110.54,0.00589672351
113.4102,0.00614664544
114.8453,0.00628599124
116.4951,0.00646004751
118.06015,0.006640789
119.560225,0.00683044416
121.84,0.00715509566
123.0604,0.00735018159
124.9588,0.00768930155
125.908,0.00787777804
127.2979,0.0081805684
128.62,0.0085029453
129.75,0.00880975659
130.6879,0.00908986887
132.01,0.00953071458
133.2643,0.0100080997
134.27,0.010440856
135.4,0.0109908562
136.380275,0.0115332257
137.233425,0.012064074
137.66,0.0123530837
138.176975,0.0127269754
138.741975,0.0131683334
139.527325,0.0138463481
139.92,0.014217155
140.485,0.0147928757
140.9596,0.0153193056
141.4342,0.0158896569
141.9088,0.0165091747
142.3834,0.0171839149
143.07835,0.0182864629
143.536,0.0190982096
144.0784,0.0201629562
144.666,0.0214624814
145.118,0.022582737
145.3553,0.0232185968
145.8073,0.0245321956
146.248,0.0259591904
146.474,0.0267543502
146.7,0.0275970539
147.039,0.0289589535
147.265,0.0299386116
147.604,0.0315283587
147.83,0.0326767973
148.169,0.0345489359
148.395,0.0359077912
148.734,0.0381342158
148.96,0.039758796
149.299,0.0424358153
149.638,0.0454434137
149.977,0.0488387278
150.203,0.0513516174
150.429,0.0540922626
150.655,0.057089169
150.881,0.0603754424
151.07875,0.0635185125
151.333,0.0679772616
151.58725,0.0729762855
151.826622,0.0782580156
152.011,0.0827651638
152.09575,0.0849799203
152.26525,0.0897076139
152.4065,0.09398009
152.5195,0.097638607
152.6325,0.101530676
152.802,0.107851769
152.915,0.112421684
153.0845,0.119876851
153.1975,0.125291747
153.367,0.134169547
153.48,0.140651382
153.6495,0.151338259
153.7625,0.159186884
153.819,0.163352172
153.932,0.17220987
153.9885,0.176922279
154.1015,0.186969711
154.2145,0.197931077
154.3275,0.209920652
154.384,0.216341671
154.497,0.230129113
154.61,0.245319351
154.723,0.262109268
154.836,0.280731521
154.92075,0.296065103
154.97725,0.307012308
155.03375,0.318591449
155.09025,0.330852092
155.14675,0.343848757
155.20325,0.357641524
155.25975,0.372296728
155.31625,0.387887757
155.37275,0.404495972
155.42925,0.422211764
155.48575,0.441135792
155.54225,0.461380406
155.59875,0.483071322
155.6835,0.518632757
155.74,0.54459568
155.7965,0.572581605
155.853,0.602806149
155.9095,0.635514423
155.966,0.670986012
156.0225,0.709540954
156.079,0.751546974
156.1355,0.797428262
156.192,0.847676206
156.2485,0.902862576
156.305,0.963655823
156.3615,1.03084138
156.418,1.10534708
156.460375,1.16668571
156.50275,1.23329997
156.531,1.28094396
156.55925,1.3314143
156.5875,1.38493884
156.629875,1.47150902
156.658125,1.53382692
156.686375,1.60020131
156.714625,1.67099172
156.757,1.78634527
156.78525,1.87002971
156.827625,2.00705317
156.855875,2.10695918
156.89825,2.27143181
156.9265,2.39203218
156.940625,2.45597072
156.968875,2.5917935
156.997125,2.73921319
157.01125,2.81768833
157.0395,2.98510993
157.06775,3.16791491
157.081875,3.26568105
157.110125,3.4752966
157.12425,3.58775421
157.1525,3.82968054
157.166625,3.95992113
157.194875,4.24114181
157.21465,4.45619516
157.2316,4.65380566
157.257025,4.97578125
157.2768,5.24985321
157.2994,5.59170006
157.322,5.9679975
157.3446,6.38352183
157.3672,6.84390428
157.3898,7.3558208
157.4011,7.63353421
157.41805,8.08046147
157.42935,8.40051307
157.44065,8.73990211
157.45195,9.10021235
157.4689,9.68378018
157.4802,10.1044565
157.49715,10.788573
157.50845,11.2838192
157.5254,12.0928491
157.5367,12.68128
157.55365,13.6473928
157.56495,14.353775
157.5706,14.7275919
157.5819,15.5201258
157.58755,15.9404481
157.59885,16.8336289
157.6045,17.3084418
157.6158,18.3199209
157.62145,18.8589849
157.63275,20.0104244
157.6384,20.6257661
157.6497,21.9439725
157.65535,22.6505396
157.66665,24.1689857
157.6723,24.9855311
157.6836,26.7464224
157.6949,28.6979601
157.703375,30.3034823
157.71185,32.0457771
157.7175,33.2909821
157.72315,34.6091508
157.731625,36.7358854
157.737275,38.2627574
157.742925,39.8852397
157.748575,41.6113382
157.754225,43.4498975
157.759875,45.410706
157.765525,47.5046168
157.771175,49.7436852
157.776825,52.1413283
157.782475,54.7125082
157.788125,57.4739435
157.793775,60.4443538
157.799425,63.6447445
157.805075,67.0987356
157.8079,68.9290208
157.81355,72.8143804
157.8192,77.0265088
157.822025,79.2662527
157.827675,84.0379944
157.833325,89.2365708
157.83615,92.0112927
157.8418,97.9461146
157.84745,104.446536
157.850275,107.93034
157.855925,115.4136
157.85875,119.434562
157.8644,128.094883
157.867225,132.760787
157.872875,142.837899
157.877113,151.1131
157.88135,160.072281
157.885587,169.785162
157.888413,176.717029
157.891237,184.043094
157.895475,195.830304
157.8983,204.262889
157.901125,213.191465
157.905363,227.588094
157.908187,237.907539
157.911012,248.848987
157.91525,266.516358
157.918075,279.193522
157.9209,292.641372
157.923725,306.905187
157.92655,322.030568
157.929375,338.062644
157.9322,355.045009
157.935025,373.018366
157.939262,401.913679
157.9435,433.208842
157.94802,469.273069
157.95254,508.042141
157.95706,549.29645
157.96158,592.604991
157.97401,715.402263
157.97853,757.458201
157.98192,786.35042
157.98418,803.872318
157.98644,819.702489
157.9887,833.593064
157.99096,845.313945
157.99322,854.661607
157.99548,861.467488
157.99774,865.605329
158.0,866.996916
158.00226,865.615734
158.00452,861.488217
158.00678,854.692501
158.00904,845.354769
158.0113,833.643516
158.01356,819.762202
158.01582,803.940872
158.01808,786.42735
158.02147,757.546746
158.02599,715.504407
158.03842,592.733325
158.0452,528.516336
158.04972,488.468762
158.05424,451.037699
158.059325,412.218594
158.063562,382.531138
158.0678,355.18736
158.070625,338.204308
158.074862,314.497624
158.077688,299.807609
158.080512,285.95624
158.083338,272.898011
158.086163,260.588062
158.088988,248.982688
158.091813,238.039699
158.094637,227.718671
158.097463,217.981096
158.100287,208.790464
158.103113,200.112295
158.105937,191.914126
158.108763,184.165471
158.111587,176.837756
158.115825,166.577448
158.11865,160.18893
158.121475,154.135248
158.127125,142.949793
158.132775,132.869619
158.1356,128.20222
158.14125,119.538986
158.144075,115.516606
158.149725,108.030588
158.15255,104.545445
158.1582,98.0424239
158.161025,95.0070644
158.166675,89.3291722
158.1695,86.6723709
158.17515,81.6907624
158.177975,79.3542543
158.183625,74.9632821
158.18645,72.8991751
158.1921,69.0117863
158.194925,67.1805176
158.200575,63.7246194
158.20905,59.0089282
158.2147,56.1437592
158.223175,52.2143068
158.228825,49.815105
158.2373,46.5094933
158.24295,44.4821473
158.2486,42.5823884
158.25425,40.7999095
158.2599,39.1254056
158.26555,37.5504614
158.2712,36.0674528
158.27685,34.6694608
158.2825,33.3501961
158.28815,32.1039323
158.2938,30.9254474
158.29945,29.8099724
158.31075,27.7509708
158.32205,25.8962198
158.33335,24.2198203
158.339,23.4415064
158.3503,21.9925014
158.3616,20.6728677
158.3729,19.4677633
158.37855,18.9040926
158.38985,17.8473544
158.3955,17.3517142
158.4068,16.4200957
158.41245,15.982026
158.42375,15.1566355
158.4294,14.767601
158.44635,13.6859457
158.4633,12.7184777
158.48025,11.8497409
158.4972,11.0667979
158.5085,10.587047
158.52545,9.92372186
158.53675,9.51546622
158.5537,8.9486533
158.565,8.59840408
158.58195,8.11030229
158.59325,7.807599
158.60455,7.52150967
158.61585,7.25084351
158.6328,6.87141239
158.6441,6.63475413
158.6667,6.19667263
158.6893,5.80057333
158.7119,5.44126823
158.7345,5.1143452
158.759925,4.7805892
158.78535,4.47848626
158.805125,4.26289949
158.833375,3.98096029
158.8475,3.85037826
158.87575,3.60780187
158.889875,3.49503463
158.918125,3.28482825
158.93225,3.18678007
158.9605,3.00343586
158.974625,2.91765468
159.002875,2.75678716
159.031125,2.60890051
159.04525,2.53939324
159.0735,2.40848494
159.115875,2.23037579
159.144125,2.12242963
159.1865,1.97468585
159.21475,1.8846328
159.243,1.80062925
159.27125,1.72214545
159.2995,1.64870836
159.32775,1.57989451
159.356,1.51532393
159.38425,1.45465488
159.4125,1.39757933
159.44075,1.34381904
159.469,1.29312218
159.49725,1.24526039
159.5255,1.20002618
159.55375,1.1572307
159.61025,1.0782821
159.66675,1.00720725
159.695,0.974299321
159.7515,0.913185862
159.793875,0.871082289
159.83625,0.831853821
159.89275,0.783583291
159.94925,0.739440942
160.00575,0.698969087
160.06225,0.661771751
160.0905,0.644291729
160.147,0.611375221
160.17525,0.595868698
160.26,0.552781151
160.34475,0.514272986
160.4295,0.479717447
160.51425,0.448591452
160.57075,0.429526188
160.6555,0.403174019
160.712,0.38695949
160.79675,0.364452577
160.85325,0.350547537
160.938,0.331172576
160.9945,0.319158387
161.1075,0.297063348
161.2205,0.277249868
161.277,0.26810179
161.39,0.25115694
161.503,0.23582323
161.616,0.221902704
161.729,0.209226912
161.842,0.197651776
161.955,0.187053488
162.068,0.177325174
162.181,0.168374191
162.294,0.160119912
162.407,0.152491902
162.52,0.145428412
162.633,0.138875122
162.746,0.132784095
162.859,0.127112898
162.972,0.121823857
163.1415,0.114534477
163.2545,0.110061857
163.3675,0.105868795
163.537,0.100054175
163.73475,0.093911754
163.90425,0.0891310145
164.07375,0.0847454152
164.24325,0.0807127119
164.41275,0.0769961625
164.58225,0.0735636891
164.75175,0.0703871848
164.92125,0.0674419379
165.119,0.0642691636
165.232,0.0625723528
165.458,0.0594082953
165.571,0.0579320262
165.797,0.0551708715
165.91,0.0538787847
166.249,0.0503183816
166.588,0.047174775
166.927,0.0443860649
167.153,0.042698619
167.492,0.0403929298
167.718,0.0389900969
168.057,0.0370636104
168.283,0.0358858522
168.622,0.0342612724
168.848,0.0332638779
169.3,0.0314505309
169.526,0.030625275
169.978,0.0291175759
170.4074,0.0278411435
170.6447,0.0271933874
171.108,0.0260337081
171.6278,0.024878681
172.238,0.0236913766
172.92165,0.0225435773
173.6166,0.0215420714
174.0912,0.0209396925
174.8031,0.0201424636
175.515,0.0194552055
176.08,0.0189770881
176.86535,0.0183977992
177.6507,0.0179041901
178.34,0.0175317734
179.619725,0.0169675438
180.32315,0.0167175679
181.165,0.016466307
182.23285,0.0162131871
183.36285,0.0160142474
184.8714,0.0158422428
186.25,0.0157645546
187.885466,0.0157560504
189.1428,0.0158034967
191.0412,0.0159534832
192.9396,0.0161881553
194.919925,0.0165152083
196.439775,0.0168199143
198.68,0.0173511928
200.3298,0.0178044515
202.5898,0.0185118525
204.33,0.0191268865
206.40355,0.0199438576
208.005325,0.0206413865
209.321775,0.0212608593
211.11,0.0221737637
213.37,0.0234556941
215.3125,0.0246843113
217.75,0.0264136277
218.645,0.0271067321
220.184,0.0283792948
222.024,0.0300478125
223.22,0.0312274937
224.14,0.0321908184
226.026,0.0343328935
227.866,0.0366660117
229.2,0.0385285192
230.58,0.0406259223
231.96,0.0429175881
232.97159,0.0447347324
233.89159,0.0464983503
235.18,0.04916394
236.1,0.051221173
237.48,0.0545761875
238.86,0.0582954583
240.24,0.0624334029
241.16,0.0654562437
242.54,0.0704429503
243.0,0.0722387652
243.92,0.0760528376
244.38,0.078079354
245.3,0.0823942252
245.76,0.0846927333
246.68,0.0896001441
247.6,0.0949642068
248.52,0.10084349
249.325,0.106463921
250.36,0.114432649
251.395,0.123360996
251.74,0.12657724
252.43,0.133409891
252.775,0.13704126
253.465,0.144775553
253.81,0.148896891
254.5,0.157699206
254.96,0.164018897
255.42,0.170735143
255.88,0.17788192
256.34,0.185496931
256.8,0.193622104
257.26,0.202304172
257.72,0.211595355
258.41,0.226804122
258.87,0.237890064
259.56,0.256135966
260.02,0.269511857
260.25,0.276602474
260.71,0.291663207
260.94,0.299666099
261.4,0.316707732
261.86,0.335267318
262.32,0.35553107
262.55,0.366368113
263.01,0.389603315
263.47,0.415150248
263.93,0.44332675
264.39,0.474507272
264.85,0.509135433
265.195,0.537683372
265.425,0.558084016
265.655,0.579679609
265.885,0.602565491
266.115,0.626846715
266.345,0.652639249
266.575,0.680071374
266.805,0.709285284
267.035,0.740438938
267.3225,0.782378598
267.61,0.828014507
267.84,0.867483405
268.04125,0.904397863
268.2425,0.943736893
268.458125,0.988823813
268.67375,1.03724314
268.896562,1.09113574
269.124766,1.1508344
269.352969,1.21560117
269.586563,1.2877644
269.82375,1.36785692
270.068125,1.45849732
270.3125,1.55850508
270.57125,1.6760964
270.68625,1.7326944
270.83,1.80758484
270.945,1.87106512
271.08875,1.9552514
271.20375,2.02677739
271.3475,2.12186498
271.4625,2.20285676
271.5775,2.28859394
271.6925,2.37945476
271.83625,2.50087478
271.95125,2.60485372
272.095,2.74423757
272.23875,2.89515337
272.3825,3.05890952
272.52625,3.23700526
272.67,3.43116515
272.81375,3.64338086
272.9575,3.87596241
273.10125,4.13160119
273.245,4.413448
273.38875,4.72521036
273.475,4.92841944
273.56125,5.14504661
273.705,5.53925095
273.79125,5.79794715
273.8775,6.0752207
273.935,6.27128058
274.02125,6.58367386
274.1075,6.92002438
274.19375,7.28284321
274.28,7.67497872
274.349,8.01195853
274.441,8.49692359
274.533,9.02729528
274.625,9.60891426
274.717,10.2485893
274.809,10.9542958
274.855,11.334782
274.924,11.9437499
275.016,12.8350246
275.062,13.3184967
275.131,14.0964966
275.177,14.6535939
275.223,15.2443162
275.269,15.8714161
275.338,16.8870087
275.384,17.6190652
275.453,18.8094695
275.499,19.6711653
275.568,21.0787202
275.614,22.102401
275.683,23.7830028
275.729,25.0117001
275.752,25.6618974
275.798,27.0403275
275.821,27.7713492
275.867,29.324694
275.89,30.1504122
275.936,31.9093357
275.959,32.846706
276.005,34.8488374
276.028,35.9187508
276.074,38.2106537
276.1085,40.0754331
276.143,42.0788882
276.1775,44.234972
276.212,46.5594168
276.2465,49.07001
276.2925,52.7422816
276.327,55.770505
276.35,57.9346717
276.373,60.2255792
276.4075,63.9215886
276.4305,66.5750071
276.4535,69.3944909
276.4765,72.393941
276.4995,75.5887145
276.5225,78.9958069
276.5455,82.6340612
276.5685,86.5244079
276.5915,90.6901409
276.6145,95.1572356
276.6375,99.9547159
276.6605,105.115079
276.6835,110.674789
276.7065,116.674846
276.718,119.85422
276.741,126.603268
276.764,133.919666
276.7755,137.809958
276.7985,146.097935
276.8215,155.126933
276.833,159.945989
276.856,170.253103
276.879,181.542042
276.8905,187.591989
276.9135,200.586935
276.925,207.569243
276.948,222.607164
276.96525,234.916231
276.9825,248.20559
276.99975,262.573059
277.017,278.127417
277.03425,294.989563
