energy [eV],cross section [b]
1e-05,16481.2907
1.09515413e-05,15749.0175
1.19030825e-05,15106.4088
1.29351065e-05,14491.2487
1.41280959e-05,13865.9245
1.53210854e-05,13315.1394
1.62173165e-05,12941.9842
1.72144523e-05,12561.5612
1.87101561e-05,12049.0086
1.97072919e-05,11740.2246
2.09574453e-05,11384.6724
2.22075988e-05,11059.5827
2.34577522e-05,10760.84
2.47079056e-05,10485.0675
2.62752783e-05,10167.5267
2.86263375e-05,9741.04995
3.09773966e-05,9364.09661
3.39250237e-05,8948.03889
3.68726508e-05,8582.92588
4.00695924e-05,8233.40816
4.25333063e-05,7991.38773
4.6228877e-05,7665.30785
5.02370245e-05,7353.15594
5.33258917e-05,7137.00908
5.6414759e-05,6938.8664
6.10480599e-05,6670.34559
6.49207097e-05,6468.32921
6.87933595e-05,6283.62072
7.26660093e-05,6113.88189
7.65386591e-05,5957.19413
8.38216283e-05,5692.50144
9.11045974e-05,5460.21907
9.90035706e-05,5237.85802
0.000108134552,5011.82248
0.000117265533,4812.73006
0.000127941138,4607.55105
0.000135573082,4475.97344
0.000147020998,4298.16432
0.000155621223,4177.69886
0.00016518973,4054.88684
0.000174758236,3942.30436
0.000184326743,3838.60583
0.000195109227,3731.018
0.000207105688,3621.33438
0.000219102149,3520.7867
0.00023109861,3428.17324
0.000244617088,3332.08615
0.00026717783,3188.27951
0.000289738572,3061.6139
0.000316115755,2931.07533
0.000344401158,2808.10904
0.000372686561,2699.421
0.000396328337,2617.65114
0.000419970113,2542.88652
0.000455432776,2441.85175
0.000482074036,2373.40038
0.000511714778,2303.61523
0.00054135552,2239.64239
0.000570996263,2180.71733
0.000604397591,2119.58184
0.000641559503,2057.25498
0.000678721416,2000.11912
0.000715883329,1947.49144
0.000781055823,1864.43374
0.00085094313,1786.1931
0.000920830437,1717.0365
0.000979244313,1665.00694
0.00106686513,1595.12655
0.00115448594,1533.35922
0.00122772201,1486.88869
0.00130095808,1444.39866
0.00141081218,1386.97777
0.00149333986,1348.07417
0.00158515916,1308.41181
0.00167697847,1272.05219
0.00176879777,1238.56089
0.00187226639,1203.81255
0.00198738432,1168.38626
0.00216006122,1120.65355
0.00234734338,1074.95722
0.00256383606,1028.50303
0.00278032874,987.583538
0.00303344395,945.410192
0.00321439493,918.363463
0.0034858214,881.811124
0.00380316316,844.138075
0.00403002943,819.977085
0.0042568957,797.772715
0.00448376197,777.274233
0.00476819427,753.669245
0.00505262656,732.084793
0.00533705886,712.247963
0.00562149116,693.934814
0.00615639923,662.994664
0.00669130731,635.83865
0.00727145868,609.838218
0.00794209665,583.403225
0.00861273461,560.114601
0.00939681964,536.108834
0.00995735867,520.711279
0.0107981672,499.899301
0.0114298231,485.796124
0.0121325957,471.415399
0.0131867546,452.034865
0.0138895273,440.356109
0.0147706245,426.905331
0.0156517217,414.603741
0.0165328189,403.29618
0.0179662515,386.704293
0.0196232574,369.830565
0.0212802634,354.960919
0.0235662993,337.070608
0.0253,325.144954
0.0273724969,312.396423
0.0291089009,302.775583
0.0308453049,293.974582
0.0334499109,282.073833
0.0364951196,269.799319
0.0386721262,261.92197
0.0408491329,254.678537
0.0430261396,247.987901
0.0471202542,236.675472
0.049849664,229.914521
0.0525790738,223.682324
0.0573657607,213.836513
0.0624987338,204.549165
0.0676317069,196.328695
0.0740671428,187.241215
0.0783574334,181.807371
0.0847928693,174.432999
0.0901717968,168.876327
0.0982401881,161.400321
0.106308579,154.778635
0.113052379,149.787484
0.119796179,145.216186
0.126539979,141.008303
0.133283779,137.1175
0.14173878,132.629129
0.154421281,126.585793
0.167103783,121.228267
0.183004397,115.295607
0.198905011,110.070807
0.216150523,105.051126
0.229440726,101.563977
0.249376031,96.8496782
0.270997493,92.3180331
0.28766001,89.1684848
0.304322527,86.2722931
0.320985044,83.5965845
0.339761571,80.8118894
0.360652108,77.963393
0.381542644,75.343218
0.402433181,72.9218478
0.439069841,69.0840655
0.465261233,66.6118469
0.491452624,64.3319526
0.534062671,60.9732255
0.56689998,58.6370153
0.616155943,55.4753428
0.669578047,52.4332506
0.710747637,50.3178008
0.751917227,48.3721054
0.793086817,46.5745461
0.839479683,44.704214
0.891095823,42.792039
0.968520033,40.207639
1.0524929,37.7259132
1.08484962,36.8459216
1.14956306,35.1969795
1.24663323,32.9660284
1.319557,31.4537647
1.40069112,29.91231
1.44125817,29.1912311
1.52239229,27.8376823
1.6035264,26.5901928
1.708672,25.1112605
1.82182455,23.6702071
1.89725959,22.7852851
1.97269462,21.9544026
2.07417847,20.91342
2.20171115,19.7160784
2.26547748,19.1588138
2.39301015,18.1180477
2.45677649,17.6314052
2.60048951,16.608345
2.76038287,15.5768432
2.92027624,14.6428737
3.0801696,13.7936884
3.2579635,12.9361462
3.45365793,12.0839583
3.55150514,11.6898158
3.74719957,10.9582593
3.84504679,10.6183527
4.02481098,10.0342346
4.15047716,9.65430316
4.33897643,9.12383807
4.46464261,8.79419116
4.71597497,8.18632471
4.90447424,7.77075876
5.04608396,7.47893686
5.20363722,7.17304648
5.36119048,6.88539991
5.59752037,6.48502678
5.83385027,6.11822046
6.07018016,5.78130579
6.30724072,5.47018617
6.54576263,5.18146499
6.86131834,4.83282332
7.0190962,4.67133969
7.33465192,4.37135162
7.49242977,4.23189597
7.65020763,4.09889296
7.88340455,3.91331157
8.10966174,3.74483804
8.33591894,3.58683033
8.58357295,3.42488656
8.75580789,3.31853264
9.10027778,3.11993406
9.44474767,2.93837938
9.78921756,2.77200092
10.2173888,2.58393059
10.5385172,2.45501376
10.94718,2.30430777
11.3996099,2.15296598
11.7012299,2.060153
11.9573239,1.98595844
12.2731761,1.89982767
12.6282795,1.80951306
12.983383,1.72549795
13.3384865,1.64722439
13.69359,1.57419441
14.2262453,1.4735193
14.7589005,1.382335
15.3874249,1.28542526
15.9824222,1.20301012
16.5774194,1.12852407
17.2560388,1.05203999
17.5953484,1.01682252
18.2739678,0.951781922
18.6132775,0.921728176
18.9525871,0.893180196
19.582448,0.843863887
20.1856879,0.800700686
20.6381179,0.770688059
21.2137002,0.735162578
21.6384725,0.710700692
22.4880171,0.665812427
23.3375617,0.625724189
24.1871063,0.589837673
24.9780941,0.559758147
25.8494407,0.529920495
26.8436695,0.499614642
27.6479894,0.477693791
28.3294271,0.46076199
29.2007737,0.441112424
29.9804473,0.425280428
30.8764402,0.40896291
31.870669,0.393028043
32.4292245,0.385017117
33.2614722,0.374275112
33.9568738,0.366358565
34.8002926,0.358016591
35.5627209,0.351649623
36.6798319,0.3443462
37.456224,0.340729439
38.0147795,0.338903076
38.9553151,0.337393587
39.4234205,0.337429581
40.1205337,0.338548885
40.807557,0.341029928
41.2544014,0.343463676
41.5671925,0.345590952
42.1480902,0.350563561
42.5949346,0.355394394
43.0641212,0.361535585
43.4886234,0.368158057
43.9354678,0.376375341
44.3823122,0.386056998
44.8291566,0.397433766
45.276001,0.410789548
45.4994232,0.418316431
45.9462676,0.435327636
46.2814009,0.450045106
46.6165342,0.466722477
46.9516675,0.485668312
47.2868008,0.507256793
47.5882298,0.529306869
47.811652,0.547503644
47.9570674,0.560296691
48.2922007,0.593011786
48.4876951,0.614451399
48.6552618,0.634402573
48.8228284,0.655964996
48.9903951,0.679309169
49.1579617,0.704628994
49.3255284,0.73214573
49.493095,0.762112767
49.6606617,0.79482139
49.8003006,0.82441385
49.9678672,0.863060168
50.1354338,0.905547073
50.3030005,0.952391497
50.4147116,0.986337594
50.5822783,1.04184759
50.7498449,1.10359132
50.9174115,1.17252817
51.0849782,1.24981009
51.2525448,1.33682993
51.4201115,1.43528452
51.5597504,1.52755445
51.6435337,1.5880161
51.7552448,1.67533304
51.8111004,1.72213909
51.9228114,1.8227411
51.978667,1.87685003
52.0903781,1.99356851
52.1462336,2.05657899
52.2579447,2.19304309
52.3138003,2.26701702
52.3975836,2.38598382
52.4534392,2.47111983
52.5372225,2.60850239
52.5930781,2.707163
52.6768614,2.86696627
52.7606447,3.04260788
52.844428,3.23625242
52.9002836,3.37659036
52.9840669,3.60612815
53.0678502,3.8615534
53.1516335,4.1469124
53.2354169,4.46707453
53.2633446,4.58251477
53.3192002,4.82794177
53.347128,4.95847837
53.4029835,5.23672304
53.4309113,5.38510904
53.4867668,5.70229755
53.5146946,5.87194362
53.5565863,6.14154319
53.5984779,6.430874
53.6264057,6.6356881
53.6543335,6.85079009
53.710189,7.31472299
53.7381168,7.56514484
53.7939724,8.10742506
53.835864,8.55450355
53.8777557,9.04067002
53.9196474,9.57061942
53.9475751,9.95088627
53.9755029,10.3548176
54.0173946,11.0095314
54.0453223,11.4818811
54.0732501,11.9859288
54.1151418,12.8078726
54.1430696,13.4046151
54.1709973,14.0448054
54.212889,15.0961596
54.2408168,15.865109
54.2687446,16.6952388
54.2827084,17.1352945
54.3106362,18.0699778
54.338564,19.0843019
54.3664918,20.1875748
54.3804557,20.7758518
54.4083834,22.0331314
54.4363112,23.4093364
54.464239,24.9199414
54.4921667,26.5830187
54.5200945,28.4197799
54.5480223,30.4552518
54.5591934,31.3315512
54.5787429,32.9593872
54.5954995,34.4584561
54.6094634,35.7876694
54.6262201,37.4873483
54.6373912,38.6889809
54.6485623,39.9496058
54.6709045,42.6638361
54.6820756,44.1263025
54.7044178,47.2870521
54.7211745,49.8866738
54.7379312,52.7073227
54.7546878,55.7747127
54.7714445,59.1183965
54.7882012,62.7724712
54.8049578,66.7764405
54.8217145,71.1762719
54.8384712,76.0257036
54.8552278,81.387867
54.8663989,85.2837682
54.87757,89.465819
54.8943267,96.3389165
54.9054978,101.369472
54.9166689,106.803374
54.92784,112.684642
54.9390111,119.063425
54.9501823,125.997047
54.9613534,133.551262
54.9725245,141.801775
54.9836956,150.836087
54.9948667,160.755747
55.0060378,171.679118
55.0172089,183.744787
55.02838,197.115807
55.0339656,204.349742
55.0423439,215.962315
55.0479295,224.256329
55.0563078,237.611203
55.0618934,247.179538
55.0702717,262.637331
55.0758572,273.750138
55.0842356,291.767855
55.0898211,304.769235
55.0981995,325.932113
55.103785,341.265131
55.1121634,366.331062
55.1205417,394.197207
55.12892,425.284617
55.1317128,436.446819
55.1372984,460.093787
55.1400911,472.624021
55.1456767,499.22254
55.1484695,513.345443
55.154055,543.388522
55.1568478,559.374637
55.1624334,593.457556
55.1652261,611.634368
55.1708117,650.479518
55.1763972,692.977587
55.1819828,739.575696
55.1875683,790.786504
55.1931539,847.198825
55.1987395,909.489937
55.204325,978.439713
55.2099106,1054.94668
55.2127033,1096.35171
55.2154961,1140.04591
55.2182889,1186.1832
55.2210817,1234.92851
55.2238745,1286.45843
55.2280636,1369.39101
55.2308564,1428.73676
55.2336492,1491.5851
55.236442,1558.17148
55.2406311,1665.60895
55.2434239,1742.66072
55.2476131,1867.08352
55.2518022,2003.01088
55.2559914,2151.47852
55.2601806,2313.53132
55.2643697,2490.17782
55.2685589,2682.32305
55.2713517,2819.39076
55.2741445,2963.80149
55.2786129,3210.21107
55.2808471,3340.3951
55.2853156,3613.97472
55.2920182,4052.57387
55.3054236,4964.41877
55.309892,5245.38043
55.3132433,5435.69724
55.3154776,5549.57305
55.3177118,5651.02539
55.319946,5738.41812
55.3221802,5810.267
55.3244144,5865.29871
55.3266487,5902.50488
55.33,5923.45639
55.3322342,5913.79652
55.3344684,5885.39559
55.3367027,5838.78911
55.3389369,5774.84004
55.3411711,5694.69956
55.3434053,5599.75699
55.3456396,5491.58268
55.3478738,5371.8679
55.3512251,5174.49583
55.3556936,4887.23342
55.3679818,4048.54365
55.3724502,3752.74982
55.3769187,3470.97796
55.3791529,3336.3309
55.3836213,3080.64358
55.3872519,2886.72584
55.3914411,2678.46138
55.3942339,2548.66509
55.3970267,2425.882
55.3998194,2309.86599
55.4040086,2147.91723
55.4068014,2047.56354
55.4095942,1952.93836
55.4137833,1821.06291
55.4165761,1739.41015
55.4193689,1662.42492
55.423558,1555.08468
55.4277472,1456.71571
55.4319364,1366.4882
55.4361255,1283.6421
55.4403147,1207.48556
55.4445039,1137.39151
55.4472967,1093.74808
55.4514858,1032.52701
55.4542786,994.336653
55.4584678,940.663749
55.4612605,907.117835
55.4668461,844.909708
55.4696389,816.052866
55.4752244,762.395788
55.48081,713.631118
55.4836028,690.908996
55.4891883,648.476063
55.4947739,609.692365
55.5003594,574.16745
55.505945,541.55943
55.5115305,511.568292
55.5171161,483.930184
55.5227016,458.41254
55.5282872,434.809909
55.5338728,412.940386
55.5394583,392.642555
55.5450439,373.77287
55.5506294,356.2034
55.556215,339.819892
55.5645933,317.247554
55.5701789,303.404346
55.5757644,290.432714
55.5841428,272.457315
55.5897283,261.371289
55.5953139,250.938661
55.6036922,236.407574
55.6120705,223.087322
55.6204489,210.848688
55.63162,196.020413
55.6372055,189.17983
55.6483766,176.520377
55.6539622,170.657365
55.6651333,159.76725
55.6707189,154.705619
55.68189,145.272509
55.6930611,136.670246
55.6986466,132.650762
55.7098177,125.12251
55.7209888,118.2134
55.7265744,114.970166
55.7377455,108.86938
55.7489166,103.239026
55.7600877,98.0322294
55.7768444,90.9274044
55.7880155,86.6096621
55.7991866,82.5910942
55.8103577,78.8448154
55.8215288,75.3468811
55.8326999,72.0759106
55.8438711,69.0127665
55.8550422,66.1402789
55.8662133,63.4430084
55.8773844,60.9070421
55.8885555,58.519816
55.8997266,56.2699622
55.9108977,54.1471748
55.9220688,52.1420937
55.9388255,49.33675
55.9555822,46.7516162
55.9779244,43.6090213
56.0002666,40.7728066
56.0114377,39.457328
56.0337799,37.010417
56.0505366,35.3216232
56.0645005,34.0011011
56.0812571,32.5120342
56.1008066,30.8953163
56.1119777,30.0251197
56.1399055,28.0041658
56.1538694,27.0694972
56.1817971,25.3355456
56.2097249,23.7634047
56.2236888,23.0318054
56.2516166,21.666746
56.2795443,20.4199509
56.3074721,19.278165
56.3353999,18.2299371
56.3633277,17.2653337
56.3912554,16.375704
56.4191832,15.5534863
56.447111,14.7920476
56.4750388,14.0855504
56.5169304,13.1177094
56.5448582,12.5272861
56.572786,11.9761766
56.6146776,11.2158672
56.6565693,10.5263967
56.698461,9.89924158
56.7403526,9.32712203
56.7822443,8.80379001
56.824136,8.32385897
56.8660276,7.88266516
56.9218832,7.34773329
56.9498109,7.10078876
57.0056665,6.64344955
57.0335943,6.43147573
57.0615221,6.2296846
57.1034137,5.94470184
57.1453054,5.67924038
57.1732332,5.51224347
57.2290887,5.20010765
57.2570165,5.05413229
57.312872,4.78049376
57.3407998,4.65215863
57.3966554,4.41094506
57.4525109,4.18855406
57.4804387,4.08381172
57.5362942,3.88615533
57.6200775,3.61639631
57.6759331,3.452421
57.7317886,3.29977619
57.7876442,3.15744284
57.8434997,3.02451386
57.8993553,2.90017969
57.9552109,2.78371597
58.0110664,2.67447301
58.0669219,2.57186675
58.1227775,2.47537099
58.1786331,2.38451058
58.2344886,2.29885568
58.2903441,2.21801661
58.3461997,2.14163945
58.4579108,2.00101134
58.5696219,1.87471986
58.681333,1.76088268
58.7930441,1.65791632
58.9047552,1.56448101
59.0164663,1.47943701
59.0723218,1.43975159
59.184033,1.36551136
59.295744,1.29747662
59.4074552,1.2349753
59.4633107,1.20561424
59.6215848,1.12857333
59.7147109,1.08710391
59.798444,1.052017
59.9660107,0.987443644
60.1335773,0.929532376
60.3011439,0.877398139
60.4687106,0.830298027
60.6362772,0.787604759
60.8038439,0.748785752
60.915555,0.724831532
61.0831216,0.691492
61.2506883,0.660953107
61.4182549,0.632910075
61.5858216,0.607098481
61.7533883,0.583288015
61.9209549,0.561277338
62.0885215,0.540889816
62.3677993,0.510103668
62.5912215,0.48799992
62.7029326,0.477697239
62.9263548,0.458444979
63.149777,0.440827112
63.4849103,0.417079464
63.7083325,0.402814959
64.0434658,0.383453218
64.3785991,0.36621786
64.7137324,0.350811089
65.1605768,0.332691974
65.383999,0.324535205
65.8308434,0.30977699
66.0542656,0.30309091
66.50111,0.290924559
66.7245322,0.28538269
67.1713766,0.275249114
67.8304721,0.262298034
68.5119098,0.250975818
69.2492031,0.240644656
69.852443,0.23341439
70.5394663,0.226295833
71.2376606,0.220089809
72.1760339,0.21310571
72.9244982,0.208467851
73.5919721,0.204923161
74.3683642,0.201407541
75.1816783,0.198335137
76.2814168,0.195034441
77.1248356,0.193079818
78.2307755,0.191175282
79.2864454,0.189973715
80.4035564,0.189285746
82.3305729,0.189353126
84.0956082,0.190672504
86.1175792,0.193556065
87.9943256,0.197512666
88.9326989,0.199959375
90.1726921,0.20368851
92.0900022,0.210631042
93.007145,0.214495098
94.2779334,0.220483863
95.300002,0.225880495
96.2171448,0.231204232
97.1342876,0.237024183
98.0514304,0.243386859
98.9685732,0.250346669
100.000359,0.258970028
101.032145,0.268538024
101.720002,0.275504609
102.751787,0.286949169
103.439644,0.295319494
104.47143,0.309143416
105.159287,0.319314402
106.07643,0.334242047
106.993573,0.350967497
107.910716,0.369804877
108.827858,0.391145404
109.28643,0.402903453
109.745001,0.415481554
110.203573,0.42896259
110.662144,0.44344068
111.120715,0.459023089
111.579287,0.475832511
112.037858,0.494009844
112.49643,0.513717563
112.955001,0.535143852
113.413572,0.558507692
113.872144,0.584065169
114.101429,0.597758593
114.560001,0.627187724
115.018572,0.659669872
115.477144,0.695667919
115.935715,0.735737923
116.165001,0.757504827
116.508929,0.792590186
116.967501,0.844510904
117.196786,0.872968774
117.540715,0.919210309
117.770001,0.952669188
118.00093,0.988736518
118.228572,1.02684825
118.572501,1.08982746
118.916429,1.16024008
119.145715,1.21192365
119.375,1.26790635
119.604286,1.32869391
119.833572,1.39486931
120.062858,1.46710741
120.292143,1.54619294
120.521429,1.63304271
120.750715,1.72873331
120.98,1.83453574
121.209286,1.95195921
121.38125,2.04872486
121.610536,2.19104057
121.725179,2.26858998
121.839822,2.3508702
121.954465,2.4382802
122.069107,2.53126201
122.18375,2.63030651
122.298393,2.73595998
122.413036,2.84883181
122.527679,2.96960349
122.642322,3.09903904
122.756965,3.23799734
122.871607,3.38744661
122.98625,3.54848156
123.100893,3.72234374
123.215536,3.9104458
123.330179,4.11440062
123.3875,4.22289005
123.502143,4.45417408
123.616786,4.70646737
123.731429,4.98241225
123.846072,5.28508006
123.903393,5.447533
124.018036,5.79719986
124.132679,6.18376423
124.212929,6.4791688
124.281714,6.75047109
124.3505,7.04007105
124.419286,7.34965748
124.465143,7.56807534
124.556857,8.03656988
124.602714,8.28802799
124.694429,8.82925794
124.786143,9.42755895
124.877857,10.0912576
124.946643,10.6378347
124.9925,11.0281054
125.038357,11.4409497
125.107143,12.1064722
125.153,12.5839094
125.198857,13.0909566
125.267643,13.9125813
125.3135,14.5051751
125.359357,15.1373707
125.405214,15.8127693
125.451072,16.5353894
125.496929,17.3097256
125.542786,18.1408174
125.588643,19.0343303
125.6345,19.9966508
125.680357,21.0349987
125.703286,21.5851991
125.749143,22.7532813
125.795,24.0200223
125.852322,25.7596547
125.909643,27.6972679
125.9555,29.4105291
126.001357,31.2888865
126.024286,32.2966294
126.070143,34.4644715
126.116,36.8587895
126.138929,38.1507607
126.184786,40.9471892
126.207714,42.4620343
126.242107,44.8965654
126.2765,47.5459024
126.310893,50.4356918
126.333821,52.5102018
126.368214,55.8685813
126.402607,59.5567479
126.437,63.6184604
126.471393,68.1048081
126.505786,73.0756925
126.540179,78.6016579
126.563107,82.6346148
126.586036,86.9795248
126.5975,89.2788178
126.620429,94.1529506
126.643357,99.4269031
126.666286,105.144027
126.67775,108.183881
126.700679,114.65992
126.723607,121.71477
126.746536,129.416248
126.769464,137.841799
126.792393,147.080045
126.815321,157.2326
126.83825,168.416168
126.861179,180.764988
126.872643,187.423792
126.895571,201.817521
126.907036,209.600174
126.924232,222.080362
126.935696,230.980188
126.952893,245.278449
126.964357,255.493155
126.981554,271.93259
126.993018,283.696354
127.010214,302.65805
127.027411,323.342037
127.044607,345.92179
127.061804,370.583735
127.079,397.525363
127.096196,426.951728
127.107661,448.052003
127.119125,470.408604
127.136321,506.422389
127.147786,532.157176
127.15925,559.319507
127.179886,611.882369
127.189057,636.76055
127.2074,689.233316
127.216571,716.753703
127.234914,774.046507
127.299114,984.149176
127.317457,1039.7288
127.331214,1077.35657
127.340386,1099.85918
127.349557,1119.89562
127.358729,1137.14234
127.3679,1151.30606
127.381657,1166.23541
127.390829,1171.70977
127.399541,1173.47151
127.409171,1171.4837
127.418343,1165.7868
127.427514,1156.48705
127.436686,1143.75642
127.445857,1127.8238
127.455029,1108.96509
127.4642,1087.49179
127.473371,1063.7392
127.487129,1024.59706
127.505471,967.656396
127.555914,801.525731
127.574257,742.959919
127.5926,687.179295
127.601771,660.526696
127.620114,609.918991
127.635018,571.540427
127.652214,530.325195
127.663679,504.639985
127.675143,480.343438
127.686607,457.386668
