energy [eV],cross section [b]
1e-05,86.5759239
1.06074256e-05,84.060519
1.15185641e-05,80.6673497
1.24297025e-05,77.6544749
1.31847145e-05,75.3982737
1.39397265e-05,73.3279518
1.46947384e-05,71.4193121
1.54497504e-05,69.6523497
1.63882079e-05,67.6286419
1.73266653e-05,65.771659
1.82651227e-05,64.0596975
1.97868175e-05,61.5471619
2.15365295e-05,58.9940135
2.32862415e-05,56.7343264
2.53193721e-05,54.4087691
2.74942121e-05,52.2124986
2.96690521e-05,50.2623777
3.14712263e-05,48.8020229
3.32734006e-05,47.4619803
3.59766619e-05,45.6440008
3.79977736e-05,44.4134826
4.02378225e-05,43.1595005
4.24778715e-05,42.0060663
4.47179205e-05,40.9404233
4.72301021e-05,39.8367038
5.00144163e-05,38.7119381
5.27987306e-05,37.6773592
5.55830448e-05,36.7215249
6.04360217e-05,35.216272
6.56272514e-05,33.7947009
7.0818481e-05,32.5324531
7.5120177e-05,31.5872137
8.1572721e-05,30.3121262
8.80252651e-05,29.1799444
9.33721452e-05,28.3321052
9.87190254e-05,27.554115
0.000106739346,26.4986472
0.000112735792,25.784242
0.000119381805,25.0562135
0.000126027818,24.3865596
0.000132673831,23.7678744
0.000140127236,23.127082
0.000148388032,22.4740699
0.000160779227,21.5906027
0.000174173985,20.7437153
0.000189575872,19.8831359
0.000204977758,19.1214695
0.000222874444,18.3375973
0.000235637169,17.8340179
0.000254781255,17.1508303
0.000277026304,16.4477243
0.00029288999,15.9960305
0.000324617364,15.1940991
0.000344335454,14.75257
0.000364053545,14.3474145
0.000403489726,13.6281055
0.000440253226,13.0465659
0.000464762226,12.6978223
0.000489271225,12.3756208
0.000531989683,11.868212
0.00057768562,11.3890067
0.000623381556,10.9635041
0.000680180246,10.4956127
0.000718046039,10.2150216
0.000774844729,9.83335095
0.000821910783,9.54753175
0.000892509865,9.16196847
0.000939575919,8.92943411
0.000992359799,8.68858802
0.0010508615,8.44314593
0.00110936321,8.21738072
0.00116786492,8.00879605
0.00123347371,7.79275501
0.00134254753,7.46927682
0.00145162135,7.18297136
0.00157836296,6.88831103
0.00171393847,6.6100225
0.00184951399,6.36291476
0.0019618582,6.17786127
0.00213037453,5.92822316
0.00229889086,5.70655379
0.00243853138,5.5405492
0.0025781719,5.38821545
0.00278763269,5.1815413
0.00294423746,5.04164504
0.00311780647,4.89907508
0.00329137548,4.76793086
0.0034649445,4.64676292
0.00376747013,4.45593531
0.00398321125,4.33333487
0.00419895237,4.22030253
0.00454877339,4.05440002
0.00495101308,3.88579928
0.00535325278,3.73656194
0.00582064732,3.58295687
0.00615396197,3.48426702
0.00665393394,3.35036418
0.00702774136,3.25972028
0.00744204155,3.16733849
0.00806349184,3.04233768
0.00847779203,2.96674304
0.00899275484,2.8801538
0.00950771766,2.80068764
0.0100226805,2.72741758
0.010857685,2.61986511
0.0118178102,2.51054878
0.0130979771,2.38389945
0.0142913841,2.28147548
0.0154847912,2.19110524
0.0167748524,2.10444938
0.0182582218,2.01636157
0.0197415913,1.93836907
0.0208506424,1.88556152
0.0220798318,1.83173105
0.0233090212,1.78220144
0.0245382106,1.73642745
0.0260455236,1.68476394
0.0275365708,1.63787269
0.0290276179,1.59462629
0.0305186651,1.55457431
0.0322137222,1.51244722
0.0350623226,1.44862271
0.0369613895,1.41021379
0.0388604565,1.37463932
0.042401182,1.31477262
0.0459419076,1.26192204
0.0497693968,1.21121486
0.0541704134,1.1596374
0.0585714299,1.11394059
0.0618618796,1.08298211
0.065508768,1.05140781
0.0691556564,1.0223407
0.0728025449,0.995463477
0.0782258418,0.958988489
0.0854255473,0.915980984
0.0908916422,0.886760077
0.0955750601,0.863718391
0.104026587,0.826094008
0.109660939,0.803431152
0.115295291,0.782425679
0.125800288,0.747041349
0.136305285,0.715764217
0.147661083,0.685717352
0.156366015,0.664895798
0.165070948,0.645712246
0.178128347,0.619566247
0.188948319,0.599944502
0.205178277,0.573413649
0.215998249,0.557376238
0.228132687,0.540734675
0.248306043,0.515754883
0.261754946,0.500692642
0.27520385,0.486721223
0.300278731,0.463162742
0.316995318,0.448995962
0.333711905,0.435880314
0.366895099,0.412486688
0.39172,0.396916964
0.41681731,0.3825778
0.44738746,0.366730598
0.46959184,0.356181773
0.5140006,0.337130935
0.544540835,0.32537965
0.576642667,0.314032113
0.608744499,0.303582714
0.640846331,0.293920998
0.673865091,0.284708329
0.707800779,0.27591873
0.758704312,0.263861708
0.816503735,0.251578821
0.854686868,0.244171812
0.89287,0.237259884
0.953879926,0.227125534
1.04173397,0.214217721
1.09542221,0.207167131
1.17595456,0.197608748
1.24556035,0.190209428
1.32774895,0.18236911
1.39402,0.176675849
1.474204,0.170458813
1.56797949,0.164029965
1.634572,0.159968799
1.7568526,0.153513147
1.8370366,0.149942661
1.91203793,0.147058885
2.035492,0.143258186
2.155768,0.140706663
2.235952,0.139671336
2.276044,0.139366633
2.356228,0.139215274
2.436412,0.139732057
2.516596,0.141007814
2.59678,0.143165565
2.656918,0.145460729
2.69701,0.147361939
2.737102,0.149597534
2.787217,0.15292143
2.847355,0.157808474
2.8924585,0.162227864
2.9225275,0.165589481
2.967631,0.171346825
2.9977,0.175725555
3.037792,0.182340371
3.077884,0.189980637
3.117976,0.198829682
3.138022,0.203776642
3.168091,0.211943383
3.19816,0.221124087
3.228229,0.231476107
3.258298,0.243189211
3.278344,0.251865959
3.29839,0.261329569
3.318436,0.271672537
3.338482,0.283001528
3.358528,0.295440059
3.378574,0.3091318
3.39862,0.32424466
3.418666,0.340975859
3.438712,0.359558308
3.458758,0.380268644
3.478804,0.403437487
3.488827,0.416065089
3.5038615,0.436469495
3.5138845,0.451142015
3.5239075,0.466754593
3.5339305,0.483388378
3.5439535,0.5011335
3.5539765,0.520090286
3.5639995,0.540370681
3.5740225,0.562099901
3.589057,0.597722163
3.6040915,0.637474816
3.6141145,0.666592242
3.6241375,0.698064755
3.6341605,0.732152439
3.6441835,0.769152372
3.6542065,0.809405125
3.6642295,0.853302644
3.6742525,0.901297833
3.6842755,0.953916309
3.6942985,1.01177088
3.7043215,1.07557949
3.7143445,1.14618765
3.7243675,1.22459666
3.7343905,1.31199934
3.74104366,1.37567242
3.749425,1.46317383
3.7544365,1.51980223
3.759448,1.57998563
3.7644595,1.64402804
3.769471,1.71226674
3.7744825,1.78507664
3.779494,1.86287552
3.7845055,1.94613003
3.79202275,2.08240138
3.79703425,2.18172379
3.80204575,2.28863271
3.80705725,2.40392122
3.809563,2.46498431
3.8145745,2.59456676
3.819586,2.73501652
3.82209175,2.80970051
3.82710325,2.96885222
3.83211475,3.14235443
3.8346205,3.23503234
3.839632,3.43348227
3.8446435,3.65127963
3.84714925,3.76822913
3.85216075,4.02005786
3.8546665,4.15576299
3.859678,4.44909704
3.8616826,4.57536743
3.86519065,4.80990946
3.86819755,5.02587555
3.8717056,5.29707141
3.8757148,5.63524611
3.879724,6.00740144
3.8837332,6.41824097
3.8877424,6.87330933
3.8917516,7.37917883
3.8937562,7.65355585
3.8957608,7.94368614
3.8977654,8.2507964
3.89977,8.57623474
3.9017746,8.92148529
3.9037792,9.28818505
3.9057838,9.67814302
3.9077884,10.0933623
3.909793,10.5360655
3.9117976,11.0087242
3.9138022,11.5140929
3.9158068,12.0552486
3.9178114,12.6356372
3.9208183,13.5883753
3.9228229,14.2848548
3.9238252,14.6533919
3.9258298,15.4346474
3.9278344,16.2801597
3.9288367,16.7292236
3.9308413,17.6849344
3.9328459,18.7248853
3.9338482,19.2795565
3.9358528,20.465322
3.9368551,21.0995511
3.9388597,22.4594646
3.939862,23.1890737
3.9418666,24.7586216
3.9428689,25.6035232
3.9448735,27.4275973
3.9458758,28.4131134
3.9478804,30.5491229
3.94938385,32.3118235
3.9508873,34.2300517
3.95239075,36.3223716
3.9538942,38.6101514
3.95539765,41.1180781
3.95639995,42.9262864
3.95740225,44.8545731
3.9589057,47.9957694
3.959908,50.2734763
3.9609103,52.7140515
3.9619126,55.3330106
3.9629149,58.1477076
3.9639172,61.1775928
3.9649195,64.4445129
3.9659218,67.9730592
3.9669241,71.7909738
3.9679264,75.9296228
3.9689287,80.4245492
3.969931,85.3161199
3.9709333,90.6502821
3.9719356,96.4794494
3.97243675,99.5980589
3.97343905,106.284748
3.97444135,113.633005
3.9749425,117.58113
3.9759448,126.083913
3.97644595,130.664582
3.97744825,140.556804
3.9779494,145.900518
3.97870112,154.462947
3.97945285,163.74071
3.98020458,173.807031
3.9809563,184.743124
3.98170802,196.638869
3.98245975,209.593423
3.98321148,223.715696
3.9839632,239.124576
3.98446435,250.175115
3.9849655,261.894914
3.98571723,280.821777
3.98621837,294.401347
3.98671952,308.802029
3.98747125,332.039492
3.9879724,348.68469
3.98847355,366.299415
3.9889747,384.918749
3.98972642,414.791131
3.99037792,442.602076
3.99117976,479.26633
3.9919816,518.48595
3.99278344,559.947638
3.99558988,712.05325
3.99619126,742.607356
3.99679264,770.839417
3.99719356,787.953711
3.99759448,803.409017
3.9979954,816.963131
3.99839632,828.391307
3.99879724,837.494853
3.99919816,844.109322
3.99959908,848.111675
4.0,849.425875
4.00060138,846.315332
4.0010023,840.910662
4.00140322,832.951808
4.00180414,822.58403
4.00220506,809.990497
4.00260598,795.384524
4.0030069,779.001095
4.00360828,751.637373
4.00441012,711.266848
4.00721656,558.936486
4.0080184,517.445864
4.00841932,497.521421
4.00922116,459.540594
4.00962208,441.537079
4.010023,424.20987
4.01052415,403.506598
4.0110253,383.857829
4.01152645,365.244039
4.01227817,339.199223
4.01277933,323.03329
4.01328048,307.777292
4.0140322,286.503762
4.01478392,267.029054
4.01553565,249.204351
4.01628738,232.886424
4.01678852,222.77779
4.01754025,208.675486
4.0180414,199.929596
4.01879313,187.712228
4.01929428,180.12402
4.020046,169.506746
4.02054715,162.901014
4.02129888,153.64193
4.02180003,147.870573
4.02255175,139.765879
4.0230529,134.704436
4.0240552,125.327264
4.0250575,116.84619
4.0260598,109.157039
4.0270621,102.169304
4.0280644,95.8042548
4.0290667,89.99329
4.030069,84.6765271
4.0310713,79.801588
4.03157245,77.5152276
4.03257475,73.2187155
4.03357705,69.259471
4.03457935,65.6041491
4.0350805,63.8811166
4.03658395,59.0908233
4.0380874,54.8079305
4.03959085,50.9648056
4.0410943,47.5044652
4.04259775,44.3786737
4.0441012,41.5464148
4.04560465,38.9726594
4.04660695,37.3854202
4.0481104,35.1778336
4.0491127,33.8114964
4.05061615,31.9046613
4.05161845,30.7205581
4.0531219,29.0628609
4.0541242,28.0303303
4.0561288,26.1220789
4.0581334,24.400426
4.0591357,23.6021394
4.0611403,22.1177633
4.0631449,20.7680367
4.0651495,19.5372864
4.0671541,18.4120375
4.0691587,17.3806562
4.0711633,16.4330581
4.0731679,15.5604689
4.0751725,14.7552263
4.0771771,14.0106163
4.0791817,13.3207366
4.0811863,12.680382
4.0841932,11.8027832
4.0861978,11.2672185
4.0882024,10.7671941
4.0912093,10.0771872
4.0942162,9.45131418
4.0972231,8.88189918
4.10023,8.36237738
4.1032369,7.88710783
4.1062438,7.45122228
4.1092507,7.0505019
4.1122576,6.68127634
4.1142622,6.45102335
4.1182714,6.0248859
4.120276,5.82750709
4.1242852,5.46083376
4.1262898,5.29037427
4.1292967,5.04931398
4.13180245,4.86083915
4.1363128,4.54728342
4.140322,4.29346196
4.1453335,4.00513645
4.150345,3.74506557
4.1553565,3.50968346
4.160368,3.29596856
4.1653795,3.10134704
4.170391,2.92361553
4.17289675,2.84048076
4.17790825,2.68461358
4.18291975,2.54136978
4.18793125,2.40942508
4.190437,2.34732296
4.19795425,2.17495533
4.2054715,2.0211601
4.21298875,1.88336694
4.220506,1.75943467
4.22802325,1.64756818
4.23303475,1.5789361
4.240552,1.48392999
4.24806925,1.39744276
4.2555865,1.31848731
4.260598,1.26961075
4.26811525,1.2013812
4.27312675,1.15899778
4.280644,1.09963887
4.2856555,1.06264919
4.2956785,0.994246465
4.30069,0.962588111
4.310713,0.903817349
4.31823025,0.863345381
4.3257475,0.825650794
4.3357705,0.779286804
4.3457935,0.736907428
4.3558165,0.698069244
4.3658395,0.662388754
4.3758625,0.629532935
4.3858855,0.599211476
4.3959085,0.571170372
4.4059315,0.545186619
4.4159545,0.521063781
4.4259775,0.498628287
4.4360005,0.477726311
4.4460235,0.458221139
4.4560465,0.439990939
4.471081,0.414801237
4.481104,0.399306687
4.491127,0.384752818
4.5061615,0.364524231
4.521196,0.346023077
4.541242,0.323714407
4.561288,0.303753941
4.581334,0.285822136
4.60138,0.269651938
4.611403,0.26215583
4.631449,0.248218051
4.641472,0.241732706
4.65678226,0.23239159
4.671541,0.223982623
4.691587,0.213407896
4.70161,0.208455297
4.731679,0.194791319
4.761748,0.182701026
4.791817,0.171948884
4.821886,0.162341802
4.851955,0.153720285
4.882024,0.145951664
4.912093,0.138924861
4.942162,0.132546315
4.962208,0.128614447
4.992277,0.123146104
5.0173345,0.118944398
5.0474035,0.114282901
5.0774725,0.10999326
5.122576,0.104170144
5.152645,0.100646691
5.182714,0.0973765332
5.2278175,0.0928927595
5.282944,0.0880081905
5.343082,0.0833105043
5.40322,0.0791641294
5.463358,0.0754807499
5.523496,0.0721892092
5.563588,0.0701835141
5.643772,0.0665606765
5.683864,0.0649195962
5.75315571,0.0623137307
5.80414,0.0605614696
5.884324,0.0580503063
5.924416,0.056894123
6.0046,0.0547552725
6.124876,0.0519189489
6.2431474,0.0494879555
6.365428,0.0472773831
6.4696672,0.0455943401
6.60598,0.0436257491
6.7703572,0.0415406258
6.9387436,0.0396701899
7.10713,0.0380179812
7.20736,0.0371218778
7.3466797,0.0359695991
7.4859994,0.0349126564
7.68395365,0.0335515116
7.83530095,0.0326068324
8.0092,0.0316098324
8.20966,0.0305625998
8.4993247,0.0292132707
8.7669388,0.0281114759
8.9232976,0.0275229709
9.21196,0.0265295403
9.4464982,0.0258008589
9.693064,0.0251012426
10.0298368,0.0242422567
10.41472,0.0233789657
10.8191481,0.0225886261
11.21656,0.0219126177
11.6555674,0.0212666858
12.0184,0.0208035009
12.5867041,0.0201914579
12.9876241,0.0198344729
13.42162,0.0195111723
13.802181,0.0192778668
14.273575,0.0190498137
14.774725,0.0188774477
15.275875,0.0187743451
15.777025,0.0187388528
16.1686126,0.0187579122
16.5916502,0.0188250951
17.1557004,0.0189920152
17.644575,0.0192115894
18.200125,0.0195517183
18.755675,0.0199974149
19.03345,0.0202637206
19.311225,0.0205615572
19.81122,0.0211846317
20.25566,0.0218436925
20.7367663,0.0226861533
21.1598389,0.0235557218
21.58898,0.0245821371
21.9311988,0.0255220835
22.2134182,0.0263907269
22.3756388,0.0269327802
22.772857,0.0284095402
23.1406311,0.0299957998
23.439517,0.0314693702
23.58896,0.032277383
23.7689582,0.0333210606
23.92229,0.0342764727
24.1089548,0.0355304628
24.2956196,0.0368949928
24.4822844,0.038383147
24.6622826,0.0399493704
24.8356142,0.0415941518
25.03339,0.0436556383
25.2422768,0.0460769634
25.4156084,0.0483042665
25.58894,0.050758053
25.7739381,0.0536628704
25.8850481,0.0555678273
25.9839361,0.0573757119
26.088935,0.0594218076
26.200045,0.0617420927
26.3100439,0.0642118467
26.4348084,0.0672436028
26.6025845,0.0717576543
26.7339286,0.0756916193
26.8355942,0.0790114906
26.9514264,0.0831227188
27.0672586,0.0876272451
27.1722575,0.0920938864
27.3022562,0.0981993627
27.3955886,0.103027806
27.4422548,0.105596998
27.5355872,0.111075964
27.6516971,0.118597605
27.7655849,0.126848301
27.855584,0.134072756
27.9311388,0.14068315
27.9911382,0.146326892
28.0489154,0.152123804
28.122248,0.160044162
28.2133582,0.170867175
28.2600244,0.176881398
28.344468,0.188677933
28.388912,0.195407633
28.433356,0.202533538
28.500022,0.214035924
28.566688,0.22662419
28.633354,0.240440171
28.70002,0.255649677
28.744464,0.266658367
28.788908,0.278438415
28.855574,0.297719339
28.900018,0.311772312
28.944462,0.32689903
29.011128,0.351852942
29.055572,0.370190892
29.100016,0.390069097
29.14446,0.411665619
29.188904,0.435185046
29.233348,0.460863378
29.277792,0.488974006
29.322236,0.519835054
29.3722355,0.558306893
29.4055685,0.586456978
29.422235,0.601361683
29.455568,0.63297991
29.4722345,0.649759368
29.5055675,0.68544123
29.522234,0.704424342
29.555567,0.744898958
29.5722335,0.766490097
29.600011,0.804671876
29.622233,0.83735868
29.655566,0.890342029
29.677788,0.928569941
29.711121,0.990799548
29.733343,1.03589806
29.766676,1.10966168
29.788898,1.1633845
29.822231,1.25172416
29.844453,1.31642265
29.855564,1.35069852
29.877786,1.42345404
29.888897,1.4620884
29.911119,1.54429842
29.933341,1.63374082
29.955563,1.73129065
29.966674,1.78341594
29.988896,1.89507326
30.011118,2.01768215
30.03334,2.15272474
30.055562,2.30194271
30.077784,2.46739385
30.100006,2.65152347
30.111117,2.75148474
30.122228,2.85725544
30.133339,2.96929497
30.14445,3.08810909
30.155561,3.21425561
30.166672,3.34835096
30.177783,3.49107776
30.188894,3.64319353
30.200005,3.80554074
30.2166715,4.07032966
30.233338,4.36393001
30.244449,4.57777987
30.25556,4.80783338
30.266671,5.05577072
30.277782,5.3234956
30.288893,5.61317199
30.300004,5.92726795
30.311115,6.26860841
30.322226,6.64043891
30.333337,7.04650303
30.3388925,7.26370161
30.3472257,7.60889574
30.355559,7.97938586
30.3611145,8.24167099
30.3722255,8.8067145
30.3833365,9.43211893
30.388892,9.77017981
30.400003,10.5033591
30.4055585,10.9013762
30.411114,11.3225113
30.4166695,11.76859
30.4250028,12.4889283
30.4305583,13.0066149
30.4361138,13.5572382
30.4416693,14.1436519
30.4500025,15.0974097
30.455558,15.7879641
30.4638912,16.9162883
30.4694467,17.7371674
30.47778,19.0853791
30.4833355,20.0715349
30.4861132,20.5935559
30.4916687,21.7006603
30.4944465,22.2880251
30.500002,23.5366795
30.5027797,24.2007563
30.5083352,25.6161377
30.5138907,27.1594817
30.5166685,27.9840105
30.522224,29.7498625
30.5250018,30.6961471
30.5305573,32.7293693
30.533335,33.8225796
30.5388905,36.1799174
30.5416683,37.452067
30.5466682,39.9172879
30.5522237,42.9528745
30.5566681,45.6375895
30.5600014,47.8196563
30.5622236,49.3623847
30.5655569,51.8201363
30.5700013,55.392862
30.5722235,57.319183
30.5755568,60.4023439
30.577779,62.5978244
30.5805567,65.5143287
30.5827789,67.9965156
30.5852789,70.9610014
30.5877789,74.1231777
30.5902789,77.500961
30.5927789,81.1143364
30.5955566,85.432778
30.5980566,89.6201994
30.6008343,94.6430818
30.6036121,100.098727
30.6063898,106.038075
30.6091676,112.519745
30.6122231,120.357107
30.6152786,129.038303
30.6183342,138.68817
30.619723,143.433885
30.6213897,149.455344
30.6227785,154.765773
30.6244452,161.517874
30.6261119,168.718445
30.6277785,176.40777
30.6294452,184.630719
30.6311118,193.437384
30.6327784,202.883814
30.6344451,213.032882
30.6361117,223.95529
30.6377784,235.730757
30.639445,248.449417
30.6416672,267.05344
30.6433339,282.394908
30.644445,293.359047
30.6455561,304.965386
30.6472227,323.690547
30.6483339,337.133756
30.6494449,351.418436
30.650556,366.615029
30.6516672,382.801355
30.6527782,400.063537
30.6538894,418.497061
30.6550004,438.20799
30.6561115,459.314365
30.6572227,481.947813
30.6583337,506.255412
30.6594448,532.401842
30.6608337,567.954371
30.6622226,607.082802
30.6636115,650.266246
30.6650003,698.063344
30.6663892,751.127757
30.6677781,810.227003
30.6683337,835.753821
30.669167,876.265396
30.6697225,904.856908
30.6705558,950.311964
30.6713892,999.101738
30.6722225,1051.53985
30.672778,1088.69587
30.6736114,1148.00736
30.6744447,1211.98413
30.675278,1281.08798
30.6761113,1355.83253
30.6769447,1436.78886
30.677778,1524.59151
30.6786113,1619.94473
30.6794447,1723.62861
30.6800002,1797.80134
30.6805557,1876.33425
30.6813891,2002.95704
30.6819446,2093.71572
30.6825002,2189.94125
30.6833335,2345.31078
30.683889,2456.78987
30.6844446,2575.04093
30.6850002,2700.46119
30.6855557,2833.45064
30.6861112,2974.40496
30.6866668,3123.70619
30.6872223,3281.71083
30.6880557,3535.71172
30.688889,3810.78165
30.6897779,4127.73523
30.6906668,4468.41958
30.6915556,4830.8959
30.6924445,5211.36819
30.6948889,6289.84368
30.6957778,6659.07928
30.6964445,6912.69556
30.6968889,7066.47971
30.6973334,7205.3965
30.6977778,7327.27161
30.6982222,7430.08698
30.6986667,7512.05796
30.6991111,7571.7068
30.6995556,7607.92702
30.7,7620.03362
30.7004444,7607.79511
30.7008889,7571.44445
30.7013333,7511.66803
30.7017778,7429.57368
30.7022222,7326.64029
30.7026666,7204.6535
30.7031111,7065.63219
30.7035555,6911.75125
30.7042222,6658.0051
30.7051111,6288.62552
30.7075555,5209.9122
30.7084444,4829.40058
30.7093332,4466.90369
30.7102221,4126.21375
30.7108888,3886.22705
30.7116665,3623.52682
30.7124999,3362.58861
30.7130554,3200.12532
30.713611,3046.53121
30.7141665,2901.46769
30.7147221,2764.56351
30.7152776,2635.42822
30.7158332,2513.66278
30.7163887,2398.86761
30.717222,2238.885
30.7177776,2139.81493
30.7183331,2046.38717
30.7191665,1916.0708
30.719722,1835.2692
30.7202776,1758.97233
30.7211109,1652.35415
30.7219442,1554.34376
30.7227775,1464.1344
30.7236109,1380.99719
30.7244442,1304.27503
30.7255553,1210.944
30.7261108,1167.76904
