energy [eV],cross section [b]
1e-05,1000.0
1.0634834394390842e-05,969.7392638267451
1.1282582485626044e-05,941.533185044318
1.1942997713822077e-05,915.1705150589506
1.2615838201167026e-05,890.4689000814069
1.3300915809790939e-05,867.268393004196
1.3997982954465929e-05,845.4315410948265
1.54272950391185e-05,805.375515876937
1.690270020642682e-05,769.4766799738526
1.842242943971045e-05,737.1035717416785
1.998526576128282e-05,707.7402887214686
2.1590025427776155e-05,680.9697764934216
2.323770047400697e-05,656.4205218430492
2.492534676225686e-05,633.842412061247
2.6652063987525387e-05,612.997379246321
2.8416972013735574e-05,593.6853566383319
3.0219417041684216e-05,575.7348578285794
3.2058496623622546e-05,559.002201367833
3.393351184839176e-05,543.3622712876615
3.584377706646028e-05,528.7070525014719
3.779629850296818e-05,514.8905077517322
3.978309435863275e-05,501.8884201762579
4.3857242161988315e-05,478.04416864179586
4.806204994641232e-05,456.6861099577521
5.239347549235065e-05,437.43030519341374
5.68488415347458e-05,419.96552482171546
6.142399498110407e-05,404.0461818838898
6.611596706137058e-05,389.4674722534616
7.092186218637887e-05,376.0603093086394
7.542422592939493e-05,364.68044750341795
8.001817601520222e-05,354.0732607921146
8.470196379519272e-05,344.1593069632157
8.947387382688217e-05,334.87000999433775
9.433257180146209e-05,326.1452201267645
9.927630179839131e-05,317.93324684340007
0.00010941324926729686,302.8697656102859
0.00011987709746178807,289.3696382767519
0.00013065530018614336,277.19539718167846
0.00014173922640798564,266.1530318867812
0.0001531204807989156,256.08570477795115
0.00016480609905458735,246.85370448083552
0.00017677520080204863,238.3629735326866
0.00018902140091058277,230.52398404475676
0.000201538457291234,223.26149884942097
0.00021432173307830375,216.51102871478108
0.00022736482794430508,210.2185407505976
0.0002406627850811495,204.33698380708285
0.00025421074173467834,198.8257376973626
0.0002680583873582748,193.6298836051988
0.00028214911354506597,188.74031452990792
0.000311043728448718,179.77343792262513
0.0003408650082694313,171.74151976767155
0.00037158428483339114,164.5001758720077
0.00040318257047825315,157.9323651634194
0.0004356304106986689,151.94573213423038
0.00046890675042456884,146.46325808129072
0.0005029910535983717,141.4213562373095
0.0005349226556878851,137.14184188694836
0.0005675038051755581,133.1528999714011
0.0006007221003198311,129.42465542803384
0.0006345653748831588,125.9313195366578
0.0006690241656989983,122.65027236040534
0.0007040860194518865,119.56207514742901
0.0007759791385899147,113.89729773563921
0.0008501906985488042,108.8204356748844
0.0009266317193721621,104.24218680307312
0.0010052409881711108,100.08959149477508
0.0010859589637132762,96.3036693483172
0.0011688355444624146,92.83188046104644
0.0012537226429252342,89.63885355442912
0.0013405749745656614,86.69092074293106
0.0014293482693264296,83.95978831402368
0.001520009641692533,81.42120442721226
0.001612513699349574,79.05484945708054
0.0017068252876915396,76.843029333686
0.0018029099191604005,74.77046841698858
0.0019011200006126521,72.81651391996691
0.0020010540546852125,70.97774106112705
0.002205980044297743,67.60565467065989
0.00241747811406435,64.58516904496636
0.0026353449439577917,61.86198701975279
0.0028594458699408654,59.39209409320048
0.003089571995176662,57.14075902452634
0.0033255739931874017,55.07901813640126
0.003567306218428522,53.18295896944989
0.003793771086706798,51.573603479162315
0.004024842666090653,50.07352074858741
0.004260433001119512,48.67147595243048
0.004500455806571123,47.357770976600634
0.004744843967906145,46.123899360642895
0.004993509163892276,44.96255096152494
0.005503388552657891,42.83225301588268
0.006029710755461947,40.92304669899792
0.006571844709883977,39.20134901217264
0.007129356282717083,37.639722736100474
0.007701823196453578,36.215987682685096
0.008289599340290449,34.91038567988376
0.008891634450148615,33.70961499375044
0.009507607359665424,32.60101446883739
0.01013720409735082,31.57394396285963
0.010780191433008497,30.6192833211794
0.011436247435891845,29.72939113917763
0.012105122782988583,28.897613379438805
0.012786572882114938,28.118205480044576
0.013483097068321903,27.3834007475196
0.014191847989387928,26.691911257475954
0.015645221268758648,25.423803406461417
0.01714520496442589,24.287918647800808
0.018690357092894485,23.263837973095264
0.020279722591735633,22.33500927517678
0.02191181992568149,21.488371512893796
0.023585590043544265,20.71303259679121
0.0253,20.0
0.02756068338099949,19.148538245719283
0.02988387759174002,18.376777313970305
0.03226790618534877,17.673588869978374
0.034711140154017044,17.029882110067533
0.0372124160481633,16.43805423784173
0.03977007174713548,15.891894300007916
0.04238285702707108,15.386099539001187
0.04504955092341939,14.91618152997767
0.047770677511910095,14.478047866110595
0.0505435967486999,14.068684839427783
0.05336732915471281,13.68523192721795
0.056240914803558,13.32520704920643
0.0621343938926749,12.666994474615917
0.06821718521176708,12.079663003446417
0.07449732090492886,11.55081890430249
0.08095607085904923,11.072803394200893
0.08758851879967552,10.63833900394229
0.09438989122758658,10.241512856962682
0.10135680965331802,9.877402499698944
0.10848440331230037,9.54200625324563
0.11576903202559172,9.23191973701384
0.1232071426500915,8.94427190999916
0.13421632604177122,8.563486637436574
0.14552992764361214,8.218344656282717
0.1571397834149422,7.903869223931065
0.16903796033609877,7.615994809383708
0.18121879258500442,7.351321338728517
0.19367418588749788,7.107071189211825
0.20639805184398335,6.880872895556965
0.21938444454325276,6.670719173151377
0.23263591615420653,6.474779842023812
0.2461396100658407,6.2917071309962465
0.2598907563643909,6.120221775421958
0.27388468035468844,5.95921375525699
0.3025850249727974,5.664852143171084
0.3322072912875059,5.402189524199092
0.36279059461593727,5.165683253162001
0.39424372216291675,4.951908218184719
0.42654273242141694,4.757609836100471
0.45966437917801906,4.580143788121327
0.4935922097041315,4.417308686090636
0.528302504118919,4.26731492479706
0.5637775353059326,4.128640018956985
0.5999999939999999,4.000000021308327
0.6,345.0
0.6462218314691333,332.4086351168672
0.6935710095480264,320.8392745105587
0.7420217516113543,310.16723027004593
0.791548868733419,300.2879067866081
0.8421336777762596,291.11179720192746
0.8937503766934058,282.5640236230805
0.946379007277887,274.57947180215547
1.0,267.102
1.0557612038530682,259.736815702243
1.11249088629885,252.82506891036158
1.2287861008609593,240.19787414151196
1.3487579683788187,228.93959276315576
1.472283509690964,218.8313574950387
1.5992808538081316,209.69727621485018
1.7296251902487547,201.39942108461833
1.8632271548430002,193.8235790187363
2.0,186.876
2.1177918279933046,181.4007306196524
2.237720616679227,176.282070089407
2.359745157305881,171.48489679383457
2.483825132189181,166.97868763330942
2.738014088560782,158.7351438710475
3.0,151.374
3.2319494029377225,145.57945350679756
3.4693065538441057,140.27142031169177
3.711936050070133,135.3887861203978
3.9597063668292214,130.8805378120944
4.212518851630421,126.70325908581464
4.470240564173589,122.82073381282646
4.732767961521056,119.20162230637109
5.0,115.819
5.480029383744368,110.33666490451391
5.9736490466812775,105.41591692360376
6.480440426785425,100.97157726927743
7.0,96.9353
7.718539750506264,92.0107651007019
8.458522269162472,87.624207599684
9.219236659406839,83.68896637778083
10.0,80.1365
10.56105927221882,77.80130495791221
11.131377845921648,75.6158025011397
11.710771022325803,73.56551715069504
12.299058613980073,71.63783120012134
13.501697910242266,68.10714454188425
14.738012087172676,64.94995638833221
16.00713257878309,62.10747009824149
17.30778071450319,59.5337836979011
18.63903325484935,57.191164455185465
20.0,55.0488
21.18258482514402,53.331489801357236
22.3852441858368,51.731199897227576
23.60754384270441,50.23594228978893
24.849061407421388,48.83535388261925
26.109456939066057,47.520353725199925
27.38830844192986,46.28310345861488
30.0,44.0149
32.33310014207571,42.20279461909345
34.71652651750164,40.551014895970226
37.14884273775111,39.03848765661404
39.62866536240673,37.64776348863027
42.15494296261085,36.36412031180313
44.72630376942048,35.175336435190715
47.34167071294738,34.07091767465934
50.0,33.0419
54.81791412945856,31.350524698950398
59.760125137561396,29.842261429960335
64.82222201001716,28.487994139776525
70.0,27.2646
73.58327254228904,26.48667199125051
77.21611184724013,25.756795790388665
84.62641449534583,24.42389943408229
92.22341306749446,23.23625858330577
100.0,22.1707
105.67921792086715,21.455277898349625
111.44233445519735,20.78933131924666
117.28735947323644,20.167744825336868
123.21236790350486,19.586099826183723
129.21578456359367,19.040532755717937
135.29571491315386,18.527704469152514
147.67885401865465,17.58881090513811
160.35243726790733,16.749562298239795
173.30342574335847,15.994597221120465
186.5223028031125,15.311464767544903
200.0,14.6901
211.9092797362149,14.181919217602967
223.9958439815498,13.711096508082157
236.25511569617964,13.273541960913276
248.68268403851758,12.865753602135976
261.2749624525483,12.484694461079426
274.02763648904136,12.127759155814553
286.9371352984449,11.792661160973145
300.0,11.4774
323.5481375332854,10.951828794349384
347.5385661762153,10.47653106724524
371.9561994594609,10.044435391919025
396.78668236415547,9.649761097748637
422.01896522072406,9.28769691410702
447.6391836911936,8.954280440087029
473.63637046028015,8.646150003447294
500.0,8.36046
524.0730979267782,8.116681326909875
548.4226823283873,7.8879886523701295
597.9266767848011,7.470448800706613
648.4666534120219,7.098555691508749
700.0,6.76504
736.0431760357088,6.553067970902804
772.522295783781,6.3551330324195385
809.4268176510514,6.169849320944927
846.7465691107548,5.996010945805367
922.5963246160014,5.678565982169219
1000.0,5.39578
1057.3139692975833,5.208775012506855
1115.39881878565,5.035420989860139
1174.2340510429867,4.874237306875097
1233.7999560369449,4.723953877779064
1294.0803438018256,4.583468293411969
1355.0560666174918,4.451832290969918
1479.0301517469095,4.211881829489825
1605.6265480447044,3.998547818369529
1734.7159823006205,3.8075635625199697
1866.2036681917232,3.635506316522516
2000.0,3.47963
2119.2152364768276,3.357520916971038
2240.1685576988825,3.2444845946629255
2362.8140250023534,3.1395184301130965
2487.107424560692,3.041765150701138
2613.012767712298,2.9504824339090305
2740.4869292239714,2.865034036464333
2869.494193050909,2.78486233982767
3000.0,2.70948
3234.157544480109,2.593045664600948
3473.1113445509845,2.487239561152426
3716.7140679298973,2.3906263570054773
3964.824508176243,2.302023481359871
4217.334707364074,2.220438521597876
4474.106152862548,2.145050144125333
4735.029701356898,2.0751564469380055
5000.0,2.01016
5480.446503403923,1.9131744084890057
5974.209227920899,1.826257651847257
6480.8632357083125,1.747864998330014
7000.0,1.67676
7715.892082061521,1.5980842833297562
8454.95904602182,1.5275424653350258
9216.542026177163,1.4638841161997729
10000.0,1.40611
11104.360471529068,1.344147409021272
12252.125230986661,1.2884532422987975
13442.319607278274,1.238074167007944
14673.97110581705,1.1922479105174164
15946.495382759287,1.1503445282326068
17258.825233871165,1.1118635203063323
18610.234912953325,1.0763801833887692
20000.0,1.04354
22345.86273825835,0.9989517893676356
24795.792712605555,0.9588611463943051
27347.836629839047,0.9225814695248246
30000.0,0.889565
32271.7243339685,0.8645095162732754
34610.27175333481,0.8411583726488732
37014.796404409004,0.819332794484666
39484.43939847279,0.7988793185051948
42018.64002851455,0.7796630715976267
44616.43136065848,0.7615698522939436
50000.0,0.728358
55801.123487511264,0.6973076014874471
61855.6,0.669375
65907.1031197903,0.6381340312752686
70000.0,0.609817
73585.19298083887,0.592261636993973
77219.41114346187,0.5757977901628767
84630.8301363409,0.545749474268558
92226.73455503503,0.5189952822378678
100000.0,0.495007
104909.59586659359,0.48083914157916063
109880.32975286747,0.4675399736772079
120000.0,0.443238
128494.26299017738,0.42713821490677156
137164.0,0.412314
140000.0,0.404457
147349.8549743666,0.39242460799330176
154801.27491755577,0.381162745683299
162352.0407817213,0.37059741280779473
170000.0,0.360664
184779.48027312369,0.34718324781270454
200000.0,0.33485
213276.9417787535,0.32297710435154214
226800.0,0.312015
241970.0,0.299913
250000.0,0.290037
262271.6864844463,0.28179185592611267
274697.75054954365,0.27404973761992946
300000.0,0.259896
322490.0,0.246813
330311.0,0.241322
347412.2350479943,0.2339139545095533
364730.82600019587,0.22698973726210342
382261.7120158866,0.22050213369288224
400000.0,0.21441
424361.09799495066,0.20761487614605031
449154.34452623664,0.2012913460110511
474370.3558401863,0.1953901939500461
500000.0,0.189869
524950.638071863,0.18122142194704471
549935.1284895117,0.17333235386267676
574952.0307562562,0.1661059818684044
600000.0,0.159462
624978.9231143827,0.15322374269070235
649972.2486049429,0.14745679873530812
674979.4420323413,0.14210964243370064
700000.0,0.137138
725091.3265119533,0.13188934355754825
750120.2158208895,0.12702180328993037
775089.0321902497,0.12249552327503675
800000.0,0.118276
825087.8270327316,0.114262543659259
850115.7703874018,0.11050818931122493
900000.0,0.103683
950143.3900518598,0.09734502282756051
1000000.0,0.0917221
1050169.3381479317,0.08643315565048232
1100000.0,0.0817058
1150215.6640291107,0.07710778220542543
1200000.0,0.0729829
1250280.2351703693,0.06884990150560193
1300000.0,0.0651403
1350340.2386096388,0.06141249251395567
1400000.0,0.0580668
1450436.0953192208,0.054562579640376196
1500000.0,0.0514316
1550496.6780425434,0.048257694353601194
1600000.0,0.0454264
1650594.0871635384,0.042450564505501664
1700000.0,0.0398114
1750649.4899799936,0.03714199180478966
1800000.0,0.0347795
1850730.7623169757,0.03233460682144752
1900000.0,0.0301817
1950780.3720737316,0.028013542650245724
2000000.0,0.0261085
2050839.137273932,0.024175283493530243
2100000.0,0.0224824
2126655.6318410416,0.02154382412670864
2152791.2351415134,0.0206722736536833
2178432.608220725,0.0198610953736673
2203603.660603753,0.019104467355088667
2252620.3763685706,0.017735054449536037
2300000.0,0.0165299
2326786.3334596604,0.01581882099472585
2353009.5784601206,0.015159720682474308
2378698.750016364,0.014547332954581502
2403880.6675906144,0.013977062045065372
2452818.5000419617,0.012947284261047258
2500000.0,0.0120436
2526869.4325180156,0.01151865969075222
2553148.47966906,0.011032422530616138
2578868.151708028,0.010580940974483005
2604057.0751594915,0.010160772820082502
2652944.7998761972,0.009402714170103769
2700000.0,0.00873822
2741851.6290833172,0.008153077273347062
2782261.067713258,0.007632912447781117
2821342.966643528,0.007167908645641995
2859198.8391737943,0.006750083674738395
2895915.6066335374,0.006372921245523546
2931575.350131353,0.006030982163836624
2966248.8463088707,0.005719758323972291
3000000.0,0.00543546
3037965.628702816,0.005112250125490577
3074743.6789134704,0.00482098848447829
3110418.913675282,0.004557361844391852
3145067.36035317,0.004317780136535311
3178755.225521427,0.004099247748363692
3211545.260474664,0.003899216794160987
3243492.4206087515,0.003715535353236661
3274646.780738518,0.0035463639733757492
3305045.771286339,0.003390163595157342
3334739.1621556436,0.0032455255138315233
3363764.7512562643,0.0031112687266618482
3392157.3879494593,0.002986363431396814
3447168.084284782,0.002761118463658862
3500000.0,0.0025638
3537205.1807401166,0.002431091947676934
3573388.552120962,0.0023098526964604135
3608614.126022011,0.0021987221496142274
3642940.104603654,0.0020965413989486093
3676418.0361375134,0.002002321703167672
3709097.0529796565,0.0019152057643322886
3741020.8623334267,0.0018344552635673683
3772229.694025151,0.0017594279933902423
3832635.715170859,0.0016243946919564745
3890588.8612398203,0.0015063636309914298
3946312.25379521,0.0014024441887472497
4000000.0,0.00131035
4036090.231634191,0.001255195446951077
4071383.47647699,0.0012039505049872715
4139739.261965807,0.0011117045070974621
4205356.862184307,0.0010310755142443188
4268486.247225886,0.0009600847160632915
4329335.438293189,0.0008971773581429713
4388098.474428544,0.0008410970333609427
4444938.423796989,0.0007908355543336806
4500000.0,0.000745569
4568333.496418079,0.0007035149814614039
4634776.656879818,0.0006654500429415665
4699455.856293006,0.000630854634917785
4762485.16098296,0.0005992935197458306
4823964.260704157,0.0005704012667068416
4883988.458745508,0.0005438654284190186
4942641.480502606,0.0005194206513500667
5000000.0,0.000496839
5127962.980946396,0.00047262319602298775
5253878.235513213,0.00045048871368029875
5377856.634154597,0.0004301851293434735
5500000.0,0.0004115
6000000.0,0.00041628
6500000.0,0.000465636
6740661.665996909,0.0005012217032853436
7000000.0,0.000541055
7240065.325543154,0.000587807216092214
7500000.0,0.000641041
7741709.136253765,0.0006848538766023387
8000000.0,0.00073334
8240410.280596102,0.0007966908454873447
8500000.0,0.00086893
8741651.344018266,0.0009321908517720526
9000000.0,0.0010028
9500000.0,0.00111385
10000000.0,0.00119106
10500000.0,0.0012432
11000000.0,0.00123648
11500000.0,0.00122082
12000000.0,0.00118324
12500000.0,0.00113988
12751482.206218531,0.0010973911462978491
13000000.0,0.00105773
13252552.193003729,0.0010056666093402004
13500000.0,0.000958027
13752913.072604813,0.0009074382880097154
14000000.0,0.000861418
14253405.313240469,0.0008114739336015854
14500000.0,0.000766428
14754192.200086841,0.0007153482441983995
15000000.0,0.000669944
15253296.100528622,0.0006327280723597583
15500000.0,0.000599011
15752986.729395637,0.0005682318642208762
16000000.0,0.000540144
16252627.627841648,0.0005149445498114189
16500000.0,0.00049176
16752340.1650821,0.00047071597378150196
17000000.0,0.000451225
17252065.71866781,0.0004335779359978263
17500000.0,0.000417129
18000000.0,0.000387734
18500000.0,0.000362114
19000000.0,0.000349868
19500000.0,0.000329255
20000000.0,0.000310395
