energy [eV],cross section [b]
1e-05,26917.5886
1.0956772e-05,25715.3755
1.1913544e-05,24661.0594
1.2951686e-05,23651.9487
1.4152568e-05,22626.1148
1.535345e-05,21723.1177
1.62561687e-05,21111.2618
1.72610181e-05,20487.4554
1.87682922e-05,19647.4301
1.97731416e-05,19141.5997
2.10343675e-05,18558.7513
2.22955934e-05,18026.0833
2.35568192e-05,17536.785
2.48180451e-05,17085.2733
2.64010591e-05,16565.0135
2.87755801e-05,15866.6614
3.11501012e-05,15249.7596
3.41304556e-05,14568.5247
3.711081e-05,13971.0901
4.03446328e-05,13399.2657
4.28384726e-05,13003.2462
4.65792323e-05,12469.9567
5.063813e-05,11959.526
5.37682461e-05,11606.0237
5.68983621e-05,11282.1039
6.15935362e-05,10843.333
6.55222675e-05,10513.029
6.94509988e-05,10211.1588
7.33797302e-05,9933.86341
7.73084615e-05,9677.9792
8.47051185e-05,9245.45391
9.21017756e-05,8866.12667
0.000100127492,8503.05227
0.000109411326,8133.94798
0.00011869516,7809.02912
0.000129558107,7474.10236
0.000137326444,7259.36065
0.000148978948,6969.30052
0.000157738287,6772.75215
0.00016748863,6572.35713
0.000177238974,6388.72635
0.000186989317,6219.6448
0.000197983507,6044.17482
0.000210221545,5865.26877
0.000222459583,5701.32738
0.000234697621,5550.37348
0.00024849686,5393.71415
0.000271537522,5159.24823
0.000294578183,4952.83705
0.000321537895,4740.05348
0.000350457133,4539.65535
0.00037937637,4362.6083
0.000403574816,4229.31463
0.000427773261,4107.48398
0.000464070929,3942.90706
0.000491356361,3831.37656
0.000521728778,3717.65311
0.000552101196,3613.43346
0.000582473613,3517.46219
0.000635781434,3365.93046
0.000673903046,3268.7581
0.000712024657,3179.48241
0.000774070234,3048.50977
0.000845842127,2915.32678
0.000917614021,2798.05387
0.0010015938,2677.13189
0.00106164961,2599.57948
0.00115173332,2494.79586
0.00121945043,2423.77122
0.00129482883,2351.33648
0.00140789644,2253.75471
0.00148327484,2194.97027
0.00157788523,2127.21016
0.00167249562,2065.2583
0.001767106,2008.32713
0.00186171639,1955.771
0.0019804656,1895.18477
0.00215858941,1813.80758
0.00233671322,1741.86692
0.00256028339,1662.3567
0.00278385357,1592.56169
0.00302643758,1525.69385
0.00321351204,1479.34297
0.00349412373,1416.86649
0.00379860043,1356.99723
0.00403340492,1315.48939
0.00426820941,1277.4197
0.00450301389,1242.33507
0.00476777229,1205.89073
0.00506248461,1168.69415
0.00535719692,1134.572
0.00565190924,1103.11942
0.00616917038,1053.39228
0.00672402784,1006.47284
0.00709393282,978.252522
0.00746094266,952.319612
0.00801625357,916.463864
0.0087627607,873.648733
0.00942738368,839.812284
0.0100101225,812.906823
0.0105928613,788.207712
0.0114669696,754.677033
0.012198388,729.374993
0.0129298063,706.202471
0.0136612247,684.873042
0.014392643,665.151719
0.0158312983,630.331128
0.0167493301,610.437564
0.0176262903,592.86695
0.0192170281,564.041687
0.0209454148,536.426531
0.0226738014,511.949654
0.0238262507,497.091724
0.0249787,483.247222
0.0268793884,462.340256
0.0284587768,446.545399
0.0297557201,434.503794
0.0323496067,412.580484
0.0341648441,398.714256
0.0357197263,387.67001
0.0373683947,376.706559
0.0406657316,356.781465
0.0429441071,344.356554
0.0448332286,334.772612
0.0479077393,320.393948
0.0523046731,302.066949
0.0562719425,287.410194
0.0588055606,278.840515
0.0618170625,269.354712
0.0661509875,256.874398
0.0706291207,245.229911
0.0753966302,234.022518
0.0791527625,225.939516
0.0834866875,217.326952
0.0871515139,210.574296
0.0914854389,203.145783
0.0964884625,195.236855
0.100822387,188.897704
0.10505884,183.110941
0.111267309,175.280748
0.12032505,165.053042
0.1289929,156.383928
0.139655961,146.956844
0.150662525,138.407257
0.159330375,132.378011
0.167998225,126.876518
0.178399645,120.875039
0.18793428,115.870608
0.1983357,110.878683
0.20700355,107.04485
0.2156714,103.47298
0.22433925,100.135607
0.2330071,97.0091068
0.2503428,91.3098672
0.25901065,88.7041013
0.276143709,83.9660989
0.29368205,79.6117911
0.31101775,75.7322488
0.3196856,73.933611
0.3370213,70.5910957
0.34568915,69.0380019
0.36302485,66.1486837
0.3890284,62.3098039
0.4063641,60.0507807
0.4236998,58.0128324
0.4410355,56.1827223
0.46703905,53.8036208
0.48437475,52.4487444
0.50171045,51.2705109
0.51904615,50.2632886
0.53638185,49.4226631
0.554204133,48.7287085
0.57105325,48.2293498
0.58838895,47.8736022
0.6143925,47.6413297
0.642130125,47.7987419
0.66490351,48.2511003
0.6866582,48.9681
0.70841289,49.9790211
0.73016758,51.3032316
0.75192227,52.9642702
0.762799615,53.9296087
0.784554305,56.1491637
0.806308995,58.7821489
0.828063685,61.8647025
0.849565738,65.3892669
0.86069572,67.4113783
0.871573065,69.5229823
0.88245041,71.7713448
0.9042051,76.6843733
0.912906976,78.8045118
0.930310728,83.3012823
0.956416356,90.6235473
1.01732949,108.943313
1.03473324,113.815722
1.04778605,117.11379
1.06518981,120.828578
1.07389168,122.321392
1.08259356,123.531665
1.09129543,124.433766
1.09999731,125.006556
1.10869919,125.234349
1.11740106,125.107672
1.13045388,124.248884
1.13915575,123.239053
1.14785763,121.894951
1.1565595,120.236739
1.16526138,118.289724
1.18266513,113.649897
1.19571795,109.649046
1.20877076,105.331404
1.26968389,84.0059466
1.28708764,78.2637895
1.29578952,75.5221201
1.31319327,70.3312902
1.32189515,67.8900552
1.3392989,63.3249224
1.3580878,58.8703862
1.36649226,57.0337385
1.37736961,54.7954036
1.39368563,51.7206861
1.41000164,48.9681446
1.42631766,46.517737
1.44263368,44.3497134
1.4589497,42.4454033
1.4758265,40.7349206
1.48568942,39.8506479
1.49581329,39.0275141
1.51099909,37.9470201
1.5261849,37.0438437
1.5413707,36.3105426
1.55655651,35.7409163
1.56668038,35.4495169
1.58692812,35.0728795
1.60717586,34.9633488
1.61729973,35.005817
1.6355227,35.2400053
1.64362179,35.4069642
1.65981998,35.8505565
1.68411727,36.7631367
1.70841456,37.9074568
1.75295959,40.2043887
1.77725688,41.2496206
1.78940552,41.6332782
1.80155416,41.8931759
1.81370281,42.0111272
1.82585145,41.9752179
1.8380001,41.7810902
1.85014874,41.432517
1.86229738,40.9411565
1.87444603,40.3255328
1.89469377,39.0895418
1.93518925,36.2954923
1.95948654,34.743802
1.97568473,33.870698
1.99188292,33.1755637
2.00808111,32.6956675
2.02022976,32.4991544
2.0323784,32.461355
2.04250227,32.5649887
2.04756421,32.667216
2.05521532,32.8908484
2.06370645,33.2445113
2.07627257,33.9966674
2.08464999,34.6706531
2.0888387,35.0658458
2.09721612,35.9856295
2.10140483,36.516256
2.10978224,37.7365891
2.11397095,38.4345328
2.12234837,40.030193
2.12653708,40.9393246
2.13277516,42.4492799
2.1391032,44.1956869
2.14538627,46.1751819
2.15166933,48.4371522
2.15585804,50.1241706
2.1621411,52.9627425
2.16842416,56.2276528
2.17051852,57.4234835
2.17470722,59.9955404
2.17680158,61.3789363
2.18099029,64.3603499
2.18308464,65.9671943
2.18727335,69.437679
2.1893677,71.3122159
2.19355641,75.3701741
2.19565077,77.5670625
2.19983948,82.3340873
2.20193383,84.9208435
2.20612254,90.5469329
2.20821689,93.606662
2.2124056,100.275755
2.21554713,105.807547
2.21868866,111.844578
2.2218302,118.436818
2.22392455,123.166348
2.2260189,128.182873
2.22916044,136.282959
2.23125479,142.091604
2.23334914,148.246958
2.2354435,154.765366
2.23753785,161.662021
2.23963221,168.950298
2.24172656,176.640933
2.2454964,191.517554
2.24717188,198.555978
2.25052285,213.395482
2.2555493,237.363784
2.26727768,296.63593
2.27062865,312.282929
2.27314187,322.863384
2.27481736,329.183726
2.27649284,334.804786
2.27816832,339.635577
2.27984381,343.593736
2.28151929,346.608814
2.28319477,348.625287
2.28587555,349.686575
2.28738348,349.094951
2.28905897,347.444147
2.29073445,344.778022
2.29240993,341.145807
2.29408542,336.612782
2.2957609,331.257446
2.29911187,318.440522
2.30162509,307.366973
2.30497606,291.28118
2.31419122,244.478481
2.31754218,228.026025
2.32089315,212.382512
2.32256863,204.918197
2.3259196,190.766159
2.32759509,184.090526
2.33073662,172.298965
2.33283097,164.956981
2.33492532,158.019308
2.33701968,151.473059
2.34016121,142.35441
2.34330274,134.026614
2.34644427,126.430968
2.34853863,121.744891
2.35063298,117.341075
2.35377451,111.228767
2.35691604,105.661963
2.36005758,100.59173
2.36319911,95.9731047
2.36738782,90.4471249
2.37157652,85.5648342
2.37367088,83.3410447
2.37785959,79.2857232
2.3820483,75.7035151
2.386237,72.5417079
2.38833136,71.1039882
2.39252007,68.4895151
2.39461442,67.3036783
2.39670878,66.1932589
2.40089748,64.1838781
2.40718055,61.6496867
2.41346361,59.6252547
2.41765232,58.5283714
2.4205355,57.8813923
2.42359178,57.2862435
2.4282979,56.5420867
2.43535707,55.7897978
2.44006318,55.5135422
2.4447693,55.4058401
2.44947541,55.4581655
2.45418153,55.6629311
2.45888764,56.0131587
2.46312315,56.4471933
2.46877048,57.1922011
2.47253538,57.7888949
2.47630027,58.4608755
2.48383005,60.0117475
2.49512473,62.7652196
2.51959653,69.3962976
2.52712631,71.1914034
2.53277365,72.3219672
2.54030343,73.438895
2.54406832,73.7983758
2.54783322,74.0101257
2.55442178,74.0027435
2.56101034,73.4998495
2.56665768,72.6816245
2.57230501,71.5304199
2.57795235,70.0831789
2.58548214,67.7742718
2.59489437,64.4536383
2.61936616,55.106371
2.63066084,51.043817
2.64195552,47.3561741
2.64760285,45.6711261
2.65419141,43.842393
2.66360364,41.4818365
2.66830976,40.4086498
2.67772199,38.463642
2.68713422,36.7673127
2.69654645,35.2948372
2.70595868,34.021754
2.71066479,33.4526996
2.718873,32.5575359
2.72747936,31.739302
2.74131004,30.6476752
2.75514072,29.7867797
2.76620527,29.2344759
2.77726981,28.7823395
2.79386663,28.2555609
2.80493118,27.984421
2.821528,27.667521
2.85472163,27.2414468
2.91004437,26.7969942
2.93217346,26.6760163
2.95430255,26.6136282
2.98196391,26.6791125
3.00409301,26.9101015
3.01515755,27.1062196
3.0262221,27.36753
3.03728664,27.7033568
3.04835119,28.1236817
3.05941574,28.6392137
3.07048028,29.2614602
3.08154483,30.0027812
3.08946614,30.6139669
3.10177668,31.7104382
3.10807859,32.3463427
3.1143805,33.0363797
3.12698431,34.5897997
3.13328622,35.4584873
3.14589003,37.3918203
3.15849385,39.5985581
3.1685769,41.5654331
3.17865995,43.7080249
3.18874301,46.0138755
3.19882606,48.458468
3.23159598,56.753875
3.24167903,59.1182415
3.25176208,61.2114501
3.25932437,62.5353993
3.2643659,63.2764045
3.26940742,63.8910959
3.27444895,64.3705968
3.27949047,64.7085152
3.284532,64.901265
3.28957353,64.9482657
3.29461505,64.8520049
3.29965658,64.6179577
3.30721887,64.0272513
3.31478116,63.1833037
3.32234345,62.1327108
3.3324265,60.5002769
3.36314791,55.0846346
3.37023794,53.9542502
3.38032099,52.5260591
3.39040405,51.3526809
3.39544557,50.8728341
3.40552862,50.141693
3.41212525,49.8336607
3.41924481,49.6544304
3.42602574,49.6305454
3.43506698,49.8147911
3.44410822,50.2302241
3.45767008,51.2237087
3.49383504,54.7407581
3.50061597,55.2436706
3.5073969,55.5992679
3.51643814,55.7803023
3.52321907,55.6577139
3.53113015,55.2067782
3.53904124,54.4157362
3.54356186,53.8149229
3.55034279,52.724689
3.55712372,51.4312778
3.56390465,49.9674998
3.57746651,46.6772579
3.60232992,40.2055308
3.61137116,37.9284298
3.62493302,34.7238154
3.63397426,32.7576143
3.64075519,31.379217
3.64866628,29.8767194
3.65431705,28.8724536
3.6656186,27.0308558
3.67126937,26.1901031
3.68257092,24.6586538
3.69387248,23.3129779
3.70517402,22.1360603
3.71647557,21.1119205
3.72212635,20.6525711
3.7334279,19.8311529
3.74472945,19.1299376
3.75038022,18.8212854
3.76168177,18.2826665
3.77298332,17.8433073
3.78605761,17.4520495
3.79870355,17.1883416
3.81233604,17.0279946
3.82596852,16.9971067
3.83505685,17.0505574
3.84868934,17.2477401
3.85777766,17.4622606
3.86686599,17.748532
3.87141015,17.9203119
3.88049848,18.3252237
3.8895868,18.8181603
3.89867513,19.4075356
3.90776345,20.1027437
3.91685178,20.9138924
3.9259401,21.8512784
3.93048426,22.3703625
3.93957259,23.5143999
3.94593441,24.4015186
3.95138741,25.2188525
3.9622934,27.0055621
3.97319939,28.9686569
3.99501137,33.1189938
4.00591736,35.0322861
4.01318802,36.1213463
4.01864102,36.7981234
4.02409401,37.3303165
4.02954701,37.7008082
4.03590883,37.9148273
4.04227066,37.8906292
4.04954132,37.5856915
4.05681198,37.0210295
4.06226497,36.4588036
4.06771797,35.8063713
4.09680061,31.8413759
4.1077066,30.5410184
4.11497726,29.8098258
4.11861259,29.4906289
4.12406559,29.0733842
4.13042741,28.6835582
4.13724366,28.3855694
4.14178782,28.2572979
4.14860406,28.1726454
4.15314822,28.1893674
4.15996447,28.3268512
4.16450863,28.4953758
4.16905279,28.7273118
4.17359696,29.0246876
4.17814112,29.3899367
4.18268528,29.8259546
4.18950152,30.6203091
4.1953395,31.444049
4.19869725,31.9821482
4.20654634,33.4393412
4.2091627,33.9918476
4.21439543,35.2063258
4.21962815,36.5788302
4.22303982,37.5665762
4.22747724,38.9708985
4.23270996,40.8171008
4.23532632,41.8243919
4.24055905,44.024252
4.24317541,45.2243698
4.24840814,47.8460495
4.25364086,50.7948635
4.25887359,54.1141074
4.26279813,56.8762249
4.26541449,58.8602975
4.26803086,60.9671733
4.2719554,64.3752176
4.27457176,66.8247599
4.27718813,69.4267337
4.28111267,73.6360146
4.28372903,76.6605341
4.28634539,79.8712178
4.29026994,85.0577891
4.2928863,88.7764017
4.29550266,92.7140528
4.29811903,96.8784698
4.30204357,103.563339
4.30544484,109.789775
4.30963102,118.001084
4.3138172,126.786678
4.31800338,136.075353
4.33265501,170.141784
4.33579465,176.979912
4.33893428,183.295552
4.34312046,190.57642
4.34521355,193.603811
4.34730664,196.154268
4.34939973,198.183491
4.35149282,199.654894
4.35358591,200.541209
4.35526038,200.817394
4.35777209,200.5031
4.35986518,199.579571
4.36195827,198.072717
4.36405136,196.010624
4.36614445,193.430613
4.36823754,190.377632
4.37242372,183.059515
4.37556336,176.729531
4.37974954,167.527601
4.39126153,140.73227
4.39544771,131.310242
4.39963389,122.35205
4.40172698,118.078194
4.40591316,109.976848
4.40800625,106.156465
4.41193079,99.4107119
4.41454716,95.2125118
4.41716352,91.2473499
4.41977988,87.5079375
4.42370443,82.3032622
4.42632079,79.0893571
4.42893715,76.0686578
4.43286169,71.8780557
4.43547806,69.2969272
4.43809442,66.8747196
4.44201896,63.5193923
4.44594351,60.4717629
4.44986805,57.7047676
4.45510078,54.4095126
4.4603335,51.5169516
4.46556622,48.981383
4.46818259,47.8348938
4.47341531,45.7624467
4.47864804,43.9583383
4.48388076,42.3956993
4.48649713,41.6976544
4.49172985,40.455554
4.49434621,39.9070904
4.49957894,38.9457102
4.50481166,38.1541923
4.50742803,37.8186339
4.51266075,37.2621605
4.51789348,36.8523814
4.5231262,36.5835874
4.52835893,36.4518839
4.53359165,36.4551034
4.53740628,36.5421349
4.54195474,36.739785
4.54697211,37.0780403
4.55198948,37.5457525
4.55951553,38.5012827
4.56704159,39.7832176
4.56955027,40.2884749
4.57456764,41.4245881
4.57707633,42.058836
4.5820937,43.4693845
4.58460238,44.2500726
4.58961975,45.9746873
4.59212844,46.9242114
4.59714581,49.0134506
4.60216318,51.3803498
4.60718055,54.0579478
4.60968923,55.5250272
4.6147066,58.7425252
4.61972397,62.3783311
4.623487,65.4124932
4.62725003,68.738812
4.62975871,71.132732
4.63226739,73.6783677
4.63603042,77.8026333
4.63853911,80.771079
4.64104779,83.9273326
4.64481082,89.038653
4.64731951,92.7144677
4.64982819,96.6186165
4.65359122,102.9283
4.6560999,107.453157
4.65860859,112.244421
4.66111727,117.310488
4.6648803,125.437809
4.66688725,130.03427
4.67090114,139.767756
4.67491504,150.18736
4.67892894,161.20836
4.69297757,201.653308
4.69598799,209.773625
4.69899842,217.272767
4.70301231,225.915384
4.70501926,229.507078
4.70702621,232.531012
4.70903316,234.934359
4.7110401,236.673481
4.71304705,237.715833
4.715054,238.041455
4.71806442,237.175716
4.72007137,235.711518
4.72207832,233.567651
4.72408527,230.783249
4.72609221,227.407546
4.72809916,223.497788
4.73010611,219.116971
4.73311653,211.808248
4.73713043,201.03978
4.74917212,166.220474
4.75519296,149.541026
4.75920686,139.164375
4.7612138,134.235315
4.7652277,124.923787
4.76773639,119.479437
4.77024507,114.322205
4.7740081,107.112547
4.77651678,102.645035
4.77902547,98.4371056
4.7827885,92.5876417
4.78655152,87.2580838
4.79031455,82.4086129
4.79407758,78.0003033
4.79658626,75.2881119
4.80034929,71.5338272
4.80411232,68.1272684
4.80787535,65.0382422
4.81038403,63.1416313
4.8154014,59.7056316
4.81791009,58.1527941
4.82292746,55.3473227
4.82794483,52.9069601
4.83045351,51.8119705
4.83547088,49.8520118
4.84048825,48.175253
4.84299694,47.4353179
4.84648956,46.5078859
4.84949045,45.8021204
4.85551945,44.6237765
4.86153752,43.7466359
4.86554957,43.3180788
4.86956162,43.0089343
4.87357367,42.8152894
4.87758572,42.7338519
4.88159777,42.7618309
4.88560982,42.8968096
4.88962187,43.1366072
4.89563995,43.6882313
4.90125682,44.4048519
4.90607128,45.1682145
4.90928092,45.7503165
4.9157002,47.0788901
4.92532912,49.4278842
4.94940142,56.0717206
4.9558207,57.6134723
4.96063516,58.5761885
4.96705444,59.5127367
4.97026408,59.8047801
4.97347372,59.966184
4.97668336,59.9898987
4.979893,59.8715117
4.98310264,59.6094398
4.98631228,59.2049918
4.99112674,58.3411151
4.9959412,57.1914185
5.00075566,55.791119
5.00557012,54.1826962
5.01038458,52.4123038
5.01519904,50.5264165
5.03766652,41.3592555
5.0440858,38.8949713
5.05050508,36.5725326
5.05692436,34.408303
5.06414605,32.1705274
5.07016412,30.464372
5.07417617,29.4048695
5.08019425,27.9277803
5.08621232,26.5784894
5.0922304,25.3487145
5.09624245,24.5910669
5.10426655,23.2139068
5.1082786,22.5896331
5.1163027,21.4585447
5.1243268,20.4705523
5.12833885,20.025611
5.13636295,19.2257068
5.14438705,18.5363255
5.1483991,18.2299638
5.1564232,17.6886004
5.1644473,17.2364781
5.16845935,17.0420164
5.17683646,16.7006611
5.1852052,16.443638
5.18938956,16.3456852
5.1977583,16.209823
5.20612703,16.1535739
5.21449577,16.1775552
5.22286451,16.2836683
5.22704887,16.3684599
5.23541761,16.6040371
5.23960198,16.7560406
5.24797071,17.1319752
5.25633945,17.6090083
5.26470818,18.1936274
5.27307691,18.891902
5.28144565,19.7082679
5.28814064,20.4472071
5.29483563,21.2602711
5.30153061,22.141678
5.3082256,23.0807386
5.32998431,26.2738473
5.3366793,27.1756176
5.34170054,27.7793514
5.34839553,28.4491514
5.35341677,28.8258504
5.35843801,29.0776422
5.36429613,29.1997069
5.37015424,29.1305998
5.37350174,29.006534
5.37684923,28.8237809
5.38354422,28.2972724
5.39023921,27.5891127
5.39526045,26.9664858
5.40028169,26.2881629
5.4220404,23.1493541
5.43208288,21.7998116
5.44212536,20.6001506
5.44882035,19.8962512
5.45718909,19.12861
5.46555782,18.4847936
5.47392656,17.9608447
5.47811092,17.7421614
5.48647966,17.3878646
5.49484839,17.1399613
5.50321713,16.9940445
5.51158586,16.9469959
5.5199546,16.9972457
5.52832333,17.1449705
5.53669207,17.3922824
5.5450608,17.7434488
5.54924517,17.9599686
5.555466,18.3352725
5.56446597,18.9997015
5.57235001,19.7121279
5.57629203,20.1188466
5.58220507,20.7983909
5.58614709,21.3015998
5.59008911,21.8484895
5.59600214,22.7584209
5.59994417,23.4306415
5.6058572,24.5490681
5.60979922,25.3760208
5.61571226,26.7543322
5.61965428,27.7759523
5.62556731,29.4842646
5.62950934,30.7553091
5.63148035,31.4348519
5.63542237,32.8902915
5.63936439,34.4866798
5.6413354,35.3429127
5.64527743,37.1831474
5.64921945,39.2113527
5.65119046,40.3032811
5.65513248,42.6593868
5.65710349,43.9309441
5.66104552,46.6815948
5.66301653,48.1698148
5.66695855,51.3974066
5.66892956,53.1480354
5.67287158,56.9541476
5.67484259,59.0234129
5.67779911,62.3562424
5.68075563,65.9885294
5.68371215,69.950353
5.68666866,74.2741558
5.68863967,77.3747765
5.69061069,80.6622542
5.6935672,85.967634
5.69553821,89.7699183
5.69750922,93.7969706
5.69948024,98.0589146
5.70145125,102.564967
5.70342226,107.322969
5.70539327,112.338812
5.70716718,117.076272
5.70953239,123.721481
5.71268601,133.150213
5.71741644,148.384137
5.7284541,186.119118
5.73160772,196.111546
5.73397293,202.884149
5.73554974,206.939582
5.73712655,210.555987
5.73870336,213.675679
5.74028017,216.246359
5.74185698,218.2232
5.74343379,219.570747
5.74595668,220.361262
5.74737581,220.055638
5.74895262,219.088442
5.75052943,217.479365
5.75210624,215.259065
5.75368304,212.468372
5.75525985,209.156507
5.75841347,201.195908
5.76077869,194.296203
5.7639323,184.25267
5.77260475,154.955882
5.77575837,144.642196
5.77891199,134.831344
5.7804888,130.148983
5.78364242,121.270006
5.78620473,114.549084
5.78916125,107.346283
5.79113226,102.866866
5.79310327,98.6374145
