energy [eV],cross section [b]
1e-05,1.02101487
1.06533417e-05,0.989211471
1.13066834e-05,0.960206104
1.1960025e-05,0.933611168
1.26133667e-05,0.909110297
1.38494925e-05,0.867591263
1.50856182e-05,0.831286167
1.64294256e-05,0.79656447
1.79885963e-05,0.761260851
1.9547767e-05,0.730270185
2.0723037e-05,0.709259981
2.20341298e-05,0.687834914
2.4000769e-05,0.659051885
2.53118618e-05,0.641756315
2.69655912e-05,0.621766382
2.86193206e-05,0.603535143
3.02730501e-05,0.586818975
3.19267795e-05,0.571419025
3.40126891e-05,0.553620018
3.60985986e-05,0.53738695
3.81845082e-05,0.522502899
4.15859349e-05,0.500678681
4.55324863e-05,0.478488699
4.94790376e-05,0.459009611
5.41131747e-05,0.438915515
5.74317947e-05,0.426045786
6.24097247e-05,0.408701637
6.61619832e-05,0.396943125
7.03478803e-05,0.384952434
7.66267259e-05,0.368843807
8.0812623e-05,0.359164219
8.60924484e-05,0.347976713
9.13722739e-05,0.337773473
9.66520994e-05,0.328418153
0.000105261744,0.314700616
0.0001152512,0.300753182
0.000125240656,0.288509671
0.00013697052,0.275879602
0.000149570587,0.264003783
0.000162170655,0.253540429
0.00017276594,0.245642994
0.000183361225,0.238440369
0.000199254152,0.228733608
0.000217916015,0.218720381
0.000231280237,0.212307179
0.000244644458,0.206426935
0.000258008679,0.201009698
0.000283293853,0.191829682
0.000300150635,0.186365231
0.000317007418,0.181342649
0.000346697887,0.173404084
0.000378591004,0.165939602
0.00041048412,0.15936292
0.000450712078,0.152084937
0.000477530716,0.147752682
0.000517758674,0.141896825
0.000551586006,0.137476997
0.000602327005,0.131559107
0.000636154337,0.128013605
0.00067440183,0.124330685
0.000717069485,0.120575046
0.000759737139,0.11714041
0.000802404794,0.113983509
0.00085064776,0.110704254
0.000931375176,0.105798021
0.000985193454,0.102867828
0.00103901173,0.100168359
0.00114083618,0.0955938617
0.00124266063,0.0915938348
0.00135335524,0.0877682717
0.00143897851,0.0851171398
0.00152460179,0.082692608
0.0016530367,0.0794154026
0.00176103648,0.0769418685
0.00192303615,0.0736299582
0.00203103592,0.071645743
0.00215314785,0.0695846267
0.00228937193,0.0674828173
0.00242559601,0.0655606577
0.00256182009,0.0637939329
0.00271584435,0.0619587373
0.00297358099,0.0592130313
0.00323131763,0.0568027733
0.0035339583,0.0543164302
0.00385905097,0.0519785819
0.00418414365,0.049918801
0.0044575112,0.0483641472
0.00486756251,0.0462825695
0.00527761383,0.044448581
0.00562242234,0.0430643498
0.00596723085,0.0418019104
0.00631203935,0.0406443912
0.00665684786,0.0395780213
0.00709176748,0.0383455379
0.0075266871,0.0372214968
0.00796160671,0.0361908755
0.00867081636,0.0346797107
0.00949368645,0.0331432422
0.0103165565,0.0317945018
0.0112827907,0.0304032021
0.0123207069,0.0290950143
0.0133586232,0.0279424404
0.0142313977,0.0270725274
0.0151041722,0.0262791619
0.016413334,0.0252099895
0.0174001526,0.0244851575
0.0185010151,0.0237460282
0.0196018776,0.0230700879
0.0207027401,0.022448819
0.0222648785,0.0216476365
0.0232765857,0.0211723754
0.0253,0.0203088863
0.0276831242,0.0194159663
0.0303102834,0.0185564041
0.0329374426,0.0178018912
0.0360223172,0.0170235996
0.038231472,0.0165251506
0.0415452042,0.0158534418
0.0454362696,0.0151605739
0.0482227576,0.0147168398
0.0510092456,0.0143100035
0.0537957336,0.0139352217
0.0573104331,0.0135020816
0.0608251326,0.013107076
0.0643398321,0.0127449214
0.0678545316,0.0124113056
0.0745043607,0.0118460178
0.0811541897,0.0113517831
0.0883833002,0.010879168
0.0967709734,0.0103987055
0.105158647,0.00997700931
0.115007658,0.00954207674
0.122060778,0.00926356064
0.132640457,0.00888827741
0.140615197,0.00863389983
0.149511556,0.00837454237
0.162856094,0.00802619014
0.171752453,0.00781691333
0.182973756,0.00757508249
0.19419506,0.00735457654
0.205416363,0.00715244008
0.223714588,0.00685613676
0.24494535,0.00655498501
0.266176113,0.00629073543
0.291105793,0.0060182672
0.317884933,0.0057622018
0.344664072,0.00553671207
0.367182413,0.00536660283
0.389700753,0.00521152936
0.423478264,0.00500265823
0.463140642,0.00478735045
0.491543851,0.00464954638
0.51994706,0.0045232664
0.548350268,0.00440699616
0.602089281,0.00421012684
0.637915289,0.00409304636
0.673741298,0.00398551148
0.736842961,0.00381571387
0.804625948,0.00365626932
0.872408936,0.00351598368
0.957906104,0.00336098242
1.01490422,0.00326885405
1.10040138,0.00314450819
1.17229519,0.0030508101
1.28013591,0.00292558848
1.38797662,0.00281551126
1.47865892,0.00273260379
1.56934121,0.00265713686
1.66002351,0.0025880762
1.75070581,0.00252457791
1.86508672,0.00245135056
2.03665808,0.00235360787
2.15103899,0.00229523472
2.28036586,0.00223476329
2.49677511,0.00214463738
2.71318436,0.00206591101
2.96729739,0.00198513784
3.149274,0.00193366999
3.42223893,0.00186467968
3.74276101,0.00179401802
3.97229479,0.00174906812
4.31659546,0.00168892135
4.57612203,0.0016484592
4.8656414,0.00160749111
5.15516078,0.00157031077
5.44468015,0.00153640286
5.77203053,0.00150147792
6.13721194,0.00146620792
6.50239334,0.00143428984
6.86757474,0.0014052671
7.28047379,0.00137547175
7.97139883,0.00133164947
8.89263221,0.00128266777
9.7641213,0.00124409017
10.6356104,0.00121142977
11.5830168,0.00118129747
12.3158443,0.00116114849
13.4150854,0.00113517577
14.6100839,0.00111170345
15.534426,0.00109635137
16.9209392,0.00107710438
17.8452813,0.00106640977
19.0111879,0.00105498587
21.3430011,0.00103785922
23.9795085,0.00102574376
26.92071,0.0010191483
30.2462334,0.00101846042
33.9560788,0.00102432414
38.49,0.00103902614
43.499797,0.00106311891
48.1208561,0.00109155224
54.0231095,0.0011355688
58.8354183,0.00117742559
64.4189648,0.00123250341
70.0025112,0.00129459569
74.4702701,0.00134946426
77.0768467,0.00138367876
82.29,0.00145719483
88.5557339,0.00155508262
91.05,0.00159714197
95.43,0.00167556211
99.81,0.00176017658
102.36135,0.00181251535
107.46405,0.00192445103
111.094799,0.0020104341
114.332995,0.00209193317
119.52,0.00223275735
121.71,0.00229631057
126.09,0.00243136559
129.6378,0.00254914347
134.0178,0.00270592648
137.2152,0.00282904629
142.0113,0.00302889363
145.496249,0.00318667248
149.3478,0.00337469593
152.29335,0.0035290725
156.711675,0.0037796638
161.13,0.00405572644
163.4952,0.00421514201
165.8604,0.00438342152
169.5396,0.00466435089
171.3792,0.0048142901
175.0584,0.00513501318
176.898,0.00530664142
180.5772,0.0056747895
184.655194,0.00612601526
187.41,0.00645978347
189.6,0.00674362236
192.7536,0.0071840895
195.4254,0.0075896232
197.1336,0.00786599474
200.55,0.00846299038
202.9809,0.00892749073
205.4118,0.00942892193
208.33545,0.0100865344
211.5,0.0108742073
214.22655,0.0116249167
215.8362,0.0121031796
217.48965,0.0126242128
219.1431,0.0131778628
220.79655,0.0137668701
222.45,0.014394268
223.7859,0.0149314988
225.1218,0.0154979296
227.279715,0.016480071
229.437629,0.01755411
231.21,0.0185131528
233.4,0.0198057813
235.2396,0.0209945461
237.0792,0.0222890566
238.9188,0.0237020946
239.8386,0.0244575882
241.20735,0.0256479257
242.5542,0.0269028823
243.4521,0.0277895372
245.226,0.0296703147
246.7152,0.031395351
247.8978,0.032871008
249.0366,0.0343892841
250.482,0.0364676317
251.8179,0.0385552757
252.7377,0.0400954285
254.0298,0.0424149718
255.3,0.044891144
256.614,0.0476812902
257.49,0.0496843966
258.366,0.051812997
259.68,0.0552647685
260.994,0.0590639815
262.308,0.0632585546
263.184,0.066302053
264.06,0.0695653504
265.374,0.0749203032
266.25,0.0788334328
267.126,0.0830545656
268.002,0.0876167122
268.878,0.0925574171
269.754,0.0979195258
270.63,0.103752109
271.068,0.106862135
271.944,0.113508858
272.82,0.120783896
273.696,0.128768631
274.4625,0.136411723
275.448,0.147263483
276.105,0.155221839
276.4335,0.159441464
277.0905,0.168405773
277.419,0.173169967
278.076,0.183316456
278.4045,0.188722713
279.0615,0.200267887
279.609,0.210706553
280.047,0.219648702
280.485,0.229164985
280.923,0.239305462
281.361,0.250125761
282.018,0.267768357
282.456,0.280575339
283.113,0.301558926
283.551,0.316868551
284.208,0.34208998
284.646,0.360596946
284.865,0.370413112
285.303,0.391274968
285.522,0.402366708
285.96,0.425999426
286.398,0.451756814
286.836,0.479900764
287.055,0.494960701
287.493,0.5272687
287.931,0.562818345
288.369,0.602057255
288.807,0.645512986
289.212048,0.689992927
289.5735,0.733654897
289.7925,0.762141562
290.0115,0.792308443
290.2305,0.824290074
290.4495,0.85823472
290.6685,0.894306086
290.8875,0.932685294
291.1065,0.973573148
291.3255,1.01719276
291.5445,1.06379259
291.873,1.13989581
292.2015,1.22441659
292.4205,1.28606566
292.6395,1.35246428
292.8585,1.42411241
293.0775,1.50157745
293.2965,1.58550558
293.5155,1.67663517
293.7345,1.77581301
293.9535,1.88401407
294.1725,2.00236538
294.3915,2.13217548
294.6105,2.27497056
294.72,2.35178477
294.939,2.5175084
295.158,2.70130803
295.2675,2.80081805
295.43175,2.9606753
295.54125,3.07494198
295.65075,3.19592759
295.76025,3.32416868
295.9245,3.53144405
296.034,3.68054651
296.1435,3.83925946
296.253,4.00842577
296.41725,4.28385436
296.52675,4.4834932
296.691,4.81007179
296.8005,5.04795163
296.96475,5.4391503
297.07425,5.72567836
297.129,5.87747927
297.2385,6.19970407
297.348,6.54907787
297.40275,6.73490732
297.51225,7.13102006
297.62175,7.56300984
297.6765,7.79382567
297.786,8.28820938
297.84075,8.55316997
297.95025,9.12254072
298.005,9.428712
298.1145,10.0890013
298.16925,10.445372
298.2678,11.1360392
298.3773,11.9866343
298.4649,12.7390239
298.5306,13.3506184
298.5744,13.7830542
298.662,14.7131654
298.7496,15.7403045
298.8372,16.8784089
298.9248,18.144003
298.9686,18.8306237
299.0343,19.9356655
299.0781,20.727044
299.1219,21.5662733
299.1657,22.4572752
299.2314,23.9004486
299.2752,24.9408506
299.3409,26.6328908
299.3847,27.8578746
299.4504,29.8591383
299.4942,31.3148221
299.5599,33.705019
299.6037,35.4527776
299.6256,36.3777385
299.6694,38.3388683
299.6913,39.3790172
299.7351,41.5894573
299.757,42.7645951
299.8008,45.2681206
299.8227,46.602456
299.8665,49.4528025
299.8884,50.9761735
299.9322,54.2398578
299.9541,55.989361
299.9979,59.7494692
300.0198,61.7716615
300.0636,66.1329967
300.1074,70.9672292
300.14025,74.9448839
300.1731,79.2619466
300.195,82.3476706
300.2169,85.6145214
300.24975,90.8859428
300.27165,94.6710329
300.29355,98.6936076
300.31545,102.973602
300.33735,107.533045
300.35925,112.396326
300.38115,117.590493
300.40305,123.145604
300.42495,129.095124
300.44685,135.476386
300.46875,142.331125
300.49065,149.706094
300.51255,157.65378
300.53445,166.233235
300.5454,170.780362
300.5673,180.43499
300.5892,190.904523
300.60015,196.472795
300.62205,208.338771
300.64395,221.270571
300.6549,228.17475
300.6768,242.94639
300.6987,259.132612
300.70965,267.810301
300.73155,286.456989
300.7425,296.480241
300.7644,318.077435
300.77535,329.718499
300.79725,354.872474
300.813675,375.54123
300.8301,397.931157
300.846525,422.219679
300.857475,439.563404
300.868425,457.902053
300.88485,487.426465
300.8958,508.562327
300.90675,530.954139
300.923175,567.086826
300.934125,593.007571
300.945075,620.509803
300.9615,664.959715
300.97245,696.886179
300.9834,730.782378
300.99435,766.767681
301.0053,804.963011
301.01625,845.48889
301.0272,888.46282
301.03815,933.995887
301.054575,1007.30905
301.071,1086.86511
301.08852,1178.74313
301.10604,1277.74876
301.12356,1383.36979
301.14108,1494.54746
301.18926,1811.42034
301.20678,1920.48862
301.21992,1995.57113
301.22868,2041.1626
301.23744,2082.38598
301.2462,2118.58082
301.25496,2149.13271
301.26372,2173.49742
301.27248,2191.22379
301.28124,2201.97399
301.29,2205.53922
301.30314,2197.30176
301.3119,2182.91047
301.32066,2161.70395
301.32942,2134.0814
301.33818,2100.54518
301.34694,2061.67899
301.3557,2018.12413
301.36884,1945.48059
301.38636,1838.54725
301.43892,1493.81213
301.4652,1329.18406
301.48272,1226.87433
301.50024,1131.49411
301.509,1086.5083
301.51995,1032.82486
301.536375,957.53516
301.5528,888.317899
301.569225,824.849012
301.58565,766.749128
301.5966,730.799746
301.613025,680.749914
301.623975,649.79336
301.6404,606.687965
301.65135,580.012184
301.6623,554.865186
301.67325,531.150022
301.6842,508.7752
301.69515,487.654654
301.7061,467.707631
301.71705,448.858525
301.728,431.036661
301.73895,414.176067
301.7499,398.215217
301.76085,383.096782
301.7718,368.767369
301.78275,355.177276
301.80465,330.033213
301.82655,307.331704
301.8375,296.805227
301.8594,277.23907
301.87035,268.141248
301.89225,251.185291
301.9032,243.280048
301.9251,228.508818
301.93605,221.6045
301.95795,208.671836
301.9689,202.612154
301.9908,191.235091
302.00175,185.891962
302.02365,175.838022
302.0346,171.105944
302.0565,162.183138
302.06745,157.974753
302.08935,150.023704
302.1222,139.154029
302.1441,132.537824
302.17695,123.448417
302.19885,117.889433
302.2317,110.218174
302.2536,105.506121
302.2755,101.085412
302.2974,96.9328861
302.3193,93.027599
302.3412,89.3505825
302.3631,85.8846263
302.385,82.6140895
302.4069,79.5247344
302.4288,76.6035805
302.4726,71.2194782
302.5164,66.3785297
302.5602,62.0107317
302.604,58.0569028
302.6259,56.2192089
302.6697,52.7943921
302.7135,49.6712073
302.7573,46.815488
302.7792,45.4785495
302.823,42.9699785
302.8449,41.792396
302.8887,39.5772165
302.9106,38.5347705
302.9544,36.5691863
302.9763,35.6420656
303.042,33.0619948
303.1077,30.7512695
303.1734,28.6738106
303.2391,26.7993607
303.2829,25.6497382
303.3486,24.0588602
303.3924,23.0789173
303.4581,21.7173314
303.5019,20.8753392
303.5676,19.7011222
303.6114,18.9724159
303.6552,18.2833445
303.699,17.6310913
303.7866,16.426975
303.8304,15.8706075
303.918,14.8393611
304.0056,13.9053863
304.0932,13.0568424
304.16985,12.3764734
304.2684,11.5771125
304.356,10.9298328
304.4655,10.1943212
304.575,9.53064321
304.62975,9.22285658
304.73925,8.65040145
304.794,8.38396756
304.9035,7.88676524
304.95825,7.6546005
305.06775,7.22002544
305.1225,7.01649913
305.232,6.63446449
305.3415,6.28283541
305.39625,6.11742496
305.50575,5.80563926
305.67,5.38088178
305.7795,5.12312878
305.94375,4.76993861
306.05325,4.554422
306.16275,4.35321421
306.27225,4.16507606
306.4365,3.9049826
306.546,3.74491881
306.6555,3.59451956
306.765,3.45302206
306.8745,3.31973729
306.984,3.1940416
307.0935,3.07536944
307.203,2.96320698
307.422,2.75658157
307.641,2.57089358
307.86,2.4034058
307.9695,2.32575234
308.1885,2.18135773
308.4075,2.05004542
308.6265,1.93028062
308.736,1.87430975
308.955,1.76945666
309.174,1.67319315
309.393,1.58460535
309.5025,1.54293713
309.7215,1.46440336
309.831,1.42737539
310.1595,1.32437633
310.488,1.2321814
310.8165,1.1493294
311.145,1.07459811
311.364,1.02877395
311.6925,0.965370512
312.021,0.907681453
312.3495,0.855039384
312.5685,0.822462341
312.897,0.776998847
313.116,0.748764432
313.554,0.696749807
313.992,0.650003741
314.211,0.62838652
314.649,0.588286005
315.087,0.551929291
315.306,0.535010671
315.744,0.5034422
316.182,0.47460686
316.62,0.448197489
317.058,0.423948923
317.496,0.401631283
317.934,0.381044488
318.372,0.362013733
318.81,0.344385756
319.248,0.32802572
319.905,0.305606525
320.343,0.291925062
320.781,0.279150817
321.438,0.261520733
322.095,0.245525529
322.752,0.230968665
323.5185,0.215581002
324.1755,0.203596287
324.8325,0.192594874
325.4895,0.182471773
326.1465,0.173135657
326.8035,0.164506777
327.4605,0.156515253
328.1175,0.149099632
328.884,0.141103986
329.322,0.136824506
330.198,0.128837465
330.636,0.125107455
331.512,0.118124352
332.388,0.111718436
332.826,0.108712174
333.702,0.103058147
334.578,0.0978408715
335.016,0.0953820358
335.892,0.0907390645
337.206,0.0843956095
338.082,0.0805354941
338.958,0.076938995
339.834,0.0735825369
341.148,0.0689526276
342.024,0.0661092705
342.9,0.0634417133
343.776,0.0609356848
344.652,0.0585783358
345.528,0.0563580725
346.404,0.0542644118
347.28,0.0522878561
348.5502,0.0496124284
349.3824,0.0479719402
350.7621,0.0454301356
352.536,0.0424551772
354.1128,0.0400552305
355.8648,0.0376255766
357.354,0.0357344834
359.1279,0.0336670377
360.0258,0.0326901842
361.8216,0.0308633374
363.425015,0.0293622224
365.028431,0.0279711983
366.066323,0.0271244475
368.142108,0.0255458015
369.18,0.0248093112
371.37,0.0233594378
372.89205,0.0224278082
374.4141,0.021552699
376.697175,0.0203362459
379.46205,0.019000758
381.78345,0.0179820835
384.263625,0.016984953
386.7438,0.0160716127
388.89,0.015341745
391.08,0.0146491103
393.27,0.0140042635
395.2191,0.0134670121
397.1682,0.0129614301
399.5991,0.0123715308
402.03,0.0118227903
403.7382,0.0114597541
407.1546,0.0107843749
408.8628,0.010469936
412.98,0.0097689258
416.8782,0.00917121988
420.2946,0.0086936225
423.8424,0.00823812258
427.5216,0.00780454728
431.2008,0.00740618016
434.88,0.00703925654
439.0848,0.00665424011
442.922775,0.00633135384
445.868325,0.00610020403
450.28665,0.00577796626
453.2322,0.00557803208
456.1011,0.00539377208
459.696873,0.00517629739
466.091673,0.00482283424
468.925637,0.00467847658
472.9422,0.0044855167
478.68,0.00423137398
485.25,0.0039679022
490.73595,0.00376770572
497.6673,0.00353733765
502.77,0.00338205429
509.34,0.0031979392
513.72,0.00308412965
520.29,0.00292544145
525.765,0.002803191
531.24,0.00268913531
536.715,0.00258254171
542.19,0.00248275851
547.665,0.00238920443
553.14,0.00230135964
558.615,0.00221875809
568.254839,0.0020848127
576.584517,0.0019795988
580.749356,0.00193028241
589.992671,0.00182791838
599.188012,0.001734849
608.383353,0.00164952606
617.578694,0.00157109731
626.774036,0.00149882755
635.969377,0.00143208009
645.164718,0.00137030167
654.360059,0.00131301014
663.555401,0.00125978439
672.750742,0.00121025608
681.946083,0.00116410303
691.141424,0.00112104386
700.336766,0.00108083393
709.532107,0.00104326243
723.325119,0.000991470299
732.52046,0.000959784144
740.46023,0.000934163427
754.455,0.000892828217
766.565,0.000861045407
772.62,0.000846626995
784.73,0.000821142814
790.785,0.000810379239
796.84,0.00080126829
802.895,0.000794225913
808.95,0.000789899845
813.794,0.000789074613
818.638,0.000791476193
822.36788,0.000796319193
826.697205,0.000806498307
829.119205,0.000815064957
830.748,0.000822318513
833.07312,0.000835240688
835.1076,0.000849606638
836.12484,0.000858092355
838.6195,0.000883477076
840.70242,0.000910974412
841.647,0.000925844625
842.99121,0.000950167931
844.6745,0.000987009839
845.87339,0.00101863689
846.787695,0.00104645524
847.702,0.00107807899
848.44071,0.00110686871
849.282355,0.0011437904
850.124,0.00118584723
850.98381,0.00123510714
851.74674,0.00128515231
852.50967,0.00134229547
853.26049,0.00140678677
853.9992,0.00147981554
854.41094,0.00152534911
854.89534,0.00158401529
855.2102,0.00162544184
855.6946,0.00169488004
855.94891,0.00173439398
856.43331,0.00181622381
856.9056,0.00190537943
857.39,0.00200798853
857.6322,0.00206411387
858.1166,0.00218739834
858.4799,0.00229081182
858.8432,0.00240505906
859.2065,0.00253169682
859.4487,0.00262390374
859.6909,0.00272306315
860.0542,0.00288642345
860.4175,0.00306987212
860.7808,0.00327682726
861.023,0.0034298821
861.2652,0.00359668766
861.5074,0.0037789362
861.7496,0.00397858851
861.9918,0.0041979267
862.17345,0.00437693791
862.3551,0.00456980825
862.627575,0.00488835827
862.809225,0.0051227306
862.90005,0.00524725358
863.0817,0.00551237396
863.172525,0.00565359258
863.354175,0.00595507392
863.5661,0.00634244173
863.6872,0.00658308958
863.8083,0.00683928067
863.9294,0.00711238129
864.11105,0.00755710919
864.23215,0.00787952124
864.35325,0.008224981
864.47435,0.00859573655
864.656,0.00920491883
864.7771,0.00965070066
864.95875,0.0103874733
865.07985,0.0109299508
865.1404,0.0112183074
865.2615,0.0118325552
865.32205,0.0121599106
865.44315,0.0128591599
865.5037,0.013232871
865.6248,0.014033548
865.68535,0.0144627913
865.80645,0.0153854893
865.92755,0.0164036233
866.04865,0.0175308161
866.16975,0.0187832101
866.260575,0.0198161084
866.321125,0.0205544357
866.381675,0.0213361865
866.442225,0.0221648325
866.502775,0.0230441992
866.563325,0.0239785104
866.623875,0.0249724386
866.684425,0.0260311638
866.744975,0.0271604409
866.805525,0.0283666778
866.866075,0.0296570271
866.926625,0.0310394914
866.987175,0.032523048
867.078,0.0349603687
867.13855,0.0367437176
867.1991,0.0386696134
867.229375,0.03969081
867.289925,0.0418604482
867.350475,0.0442158625
867.411025,0.0467788741
