energy [eV],cross section [b]
1e-05,2515.0
1.06352128e-05,2438.73626
1.12833344e-05,2367.65893
1.19441172e-05,2301.23402
1.26173188e-05,2239.00066
1.33027504e-05,2180.55471
1.40001637e-05,2125.5489
1.54301426e-05,2024.66228
1.69061776e-05,1934.25959
1.84264962e-05,1852.74652
1.99898785e-05,1778.82092
2.15951383e-05,1711.43038
2.32432656e-05,1649.63775
2.49313142e-05,1592.81194
2.6658382e-05,1540.35254
2.84235876e-05,1491.75504
3.02262758e-05,1446.58707
3.20655431e-05,1404.48641
3.39406895e-05,1365.13768
3.58510286e-05,1328.26864
3.78035597e-05,1293.51161
3.97903057e-05,1260.8052
4.38641728e-05,1200.83009
4.8068455e-05,1147.11342
5.23991067e-05,1098.68809
5.68534465e-05,1054.77026
6.14273205e-05,1014.74148
6.6117758e-05,978.086058
7.09218622e-05,944.378287
7.54269099e-05,915.741381
8.00235084e-05,889.051963
8.47099034e-05,864.10952
8.94843744e-05,840.740998
9.43455827e-05,818.794641
9.92917678e-05,798.140052
0.000109433444,760.257296
0.00011990176,726.311234
0.000130684143,695.703213
0.000141771941,667.944277
0.000153156742,642.639239
0.000164845568,619.43621
0.000176817523,598.098216
0.00018906621,578.399798
0.000201585376,560.151517
0.000214370377,543.191021
0.000227414803,527.382294
0.00024071369,512.606912
0.000254262171,498.762651
0.000268109885,485.711442
0.000282200258,473.430239
0.000311092882,450.909685
0.000340910434,430.739167
0.000371624222,412.555536
0.00040321523,396.064467
0.000435653996,381.033726
0.000468919452,367.269676
0.000502991054,354.612465
0.000534941691,343.859354
0.000567541623,333.837523
0.00060077841,324.471677
0.000634639847,315.696836
0.000669116442,307.456016
0.000704195707,299.700252
0.000776122366,285.475341
0.00085036561,272.728652
0.000926836275,261.235391
0.001005473,250.811957
0.00108621613,241.309958
0.00116911546,232.597259
0.0012540228,224.584878
0.00134089277,217.188155
0.00142968103,210.335956
0.00152035463,203.967318
0.00161286813,198.031168
0.00170718632,192.483037
0.00180327466,187.28454
0.00190148523,182.383833
0.00200141678,177.772262
0.00220632865,169.315831
0.00241780028,161.741836
0.00263562819,154.913912
0.0028596775,148.721544
0.00308973926,143.077526
0.00332566407,137.909148
0.00356730622,133.156386
0.00379390609,129.118612
0.00402511088,125.355431
0.00426083236,121.838571
0.00450098398,118.543633
0.00474549841,115.449219
0.00499428709,112.536943
0.00550440435,107.195512
0.00603095126,102.409152
0.00657329546,98.0934517
0.00713100179,94.1794697
0.0077036471,90.6114848
0.00829158459,87.3398812
0.0088937632,84.3312455
0.0095098612,81.5537885
0.0101395641,78.9807992
0.0107826382,76.5893863
0.0114387611,74.3603717
0.0121076833,72.2770578
0.0127891597,70.3250309
0.0134856874,68.4848236
0.0141944205,66.7531864
0.0156476936,63.577811
0.0171474898,60.7337883
0.0186923659,58.1699146
0.0202813653,55.8446906
0.0219130062,53.7253713
0.0235862289,51.7846541
0.0253,50.0
0.0267228468,48.6506379
0.0281714104,47.3832945
0.0311439315,45.0652892
0.0342143394,42.9956158
0.0373795133,41.1349375
0.0406374088,39.4515529
0.0439848211,37.9205968
0.0474194763,36.5214238
0.0509391581,35.2370643
0.0545454251,34.052263
0.058232998,32.9564279
0.0620001587,31.9394836
0.0658452257,30.9928664
0.0697669246,30.1091652
0.0737635331,29.2821039
0.0778336972,28.5061748
0.0819760875,27.776584
0.0905008201,26.4359859
0.0993021742,25.237235
0.108371962,24.1580625
0.117702238,23.1807593
0.127287632,22.2908378
0.137119987,21.4767528
0.147193392,20.72881
0.157502079,20.0389486
0.166359839,19.4981526
0.175377696,18.990228
0.193882765,18.0612202
0.212997217,17.2317387
0.232701622,16.486018
0.252983255,15.8113528
0.273822164,15.1977778
0.295204193,14.6370187
0.317115545,14.1222744
0.339565923,13.6474309
0.36252246,13.2082433
0.385974462,12.8006734
0.40991146,12.4212891
0.43432552,12.0671202
0.459205921,11.7356515
0.484544233,11.4246754
0.510332181,11.1322708
0.56340187,10.5949872
0.618193631,10.1145531
0.674656494,9.68204343
0.732740995,9.29036086
0.792413702,8.93369905
0.853623832,8.6074309
0.916334593,8.30767115
0.980510071,8.0311892
1.03565298,7.81444956
1.09179255,7.61088406
1.20699362,7.23855727
1.32598832,6.9061185
1.4486557,6.60724932
1.57491654,6.33685771
1.70464664,6.09094975
1.83775787,5.86620929
1.97416433,5.6599106
2.11392643,5.46960333
2.25683957,5.29358616
2.40283716,5.13024071
2.55185403,4.97819147
2.7038408,4.83624804
2.85873071,4.70340233
3.0164713,4.57876967
3.17701104,4.46158004
3.50738995,4.24624809
3.84848941,4.05370018
4.1999921,3.88035941
4.56159012,3.72338127
4.93307531,3.58043872
5.31413154,3.4496773
5.70452977,3.3295399
6.10404642,3.21873175
6.44733191,3.13186706
6.79682201,3.05028228
7.51399223,2.90106154
8.2547793,2.76782707
9.01843021,2.64804659
9.80445176,2.53967932
10.6120707,2.44112458
11.4407385,2.35105333
12.2899204,2.26837315
13.1599924,2.192102
14.0496807,2.12155802
14.958571,2.0560926
15.8862575,1.99515446
16.8324327,1.93826652
17.796681,1.88502475
18.7786759,1.8350746
19.7780966,1.78810746
21.8348303,1.70180694
23.9583036,1.62463779
26.146541,1.55516645
28.3976255,1.49225292
30.7102615,1.43496455
33.0824808,1.38255812
35.5128576,1.33440958
37.9999996,1.29000001
38.0000004,26.653806
39.9375,25.8465658
41.875,25.0988345
45.75,23.7556994
49.625,22.5812321
53.5,21.5435706
57.375,20.6186312
61.25,19.787831
65.125,19.0365798
70.9375,18.0340305
74.8125,17.4354829
78.6875,16.8844271
82.5625,16.3750596
88.375,15.67874
96.125,14.8567281
106.25,13.9065631
115.625,13.1359465
125.0,12.4604533
134.375,11.8626009
143.75,11.3290475
150.0,11.0038478
162.5,10.4155191
168.75,10.1483548
181.25,9.65983217
187.5,9.43579164
200.0,9.02259081
206.25,8.83226045
218.75,8.47872218
237.5,8.00675815
250.0,7.72499227
262.5,7.46565261
281.25,7.11290098
293.75,6.89871743
306.25,6.69959293
325.0,6.42561779
350.0,6.09887084
362.5,5.94974335
387.5,5.67589243
412.5,5.43060306
437.5,5.20949692
462.5,5.00869801
487.5,4.8254185
512.5,4.65770409
537.5,4.50360678
562.5,4.3611941
600.0,4.16662362
650.0,3.93848195
700.0,3.73839877
750.0,3.56132298
800.0,3.40336976
850.0,3.26258304
900.0,3.13532926
975.0,2.96570997
1031.25,2.85327144
1093.75,2.7407125
1187.5,2.59125972
1250.0,2.50250211
1312.5,2.42113285
1375.0,2.34623955
1437.5,2.27705673
1500.0,2.21293702
1562.5,2.15609428
1687.5,2.053435
1812.5,1.9631779
1968.75,1.86452448
2125.0,1.77888806
2250.0,1.71797247
2375.0,1.66271512
2500.0,1.61234145
2625.0,1.56621401
2812.5,1.5038514
3000.0,1.44842353
3125.0,1.41530424
3250.0,1.38444367
3500.0,1.32860732
3750.0,1.27940936
4125.0,1.21554037
4375.0,1.17830733
4750.0,1.12902437
5125.0,1.08598231
5500.0,1.04780144
6000.0,1.00350742
6500.0,0.964383029
7000.0,0.930198341
7250.0,0.915006052
7750.0,0.887172085
8250.0,0.861284095
8750.0,0.837025662
9250.0,0.815005114
10625.0,0.761793545
11562.5,0.730265611
12500.0,0.702576346
13750.0,0.670332265
15625.0,0.628382934
16875.0,0.602942446
18125.0,0.580104542
19375.0,0.559411788
20625.0,0.54051661
22500.0,0.51496854
23750.0,0.499508298
25625.0,0.478199611
27500.0,0.458745961
28750.0,0.446751788
31250.0,0.424802134
32500.0,0.414723573
35000.0,0.396078568
36250.0,0.387432326
38750.0,0.371326023
41250.0,0.35670983
43750.0,0.343387236
47500.0,0.325335508
50000.0,0.314418597
53750.0,0.299682777
57500.0,0.286417973
61250.0,0.274485597
65000.0,0.263768926
67500.0,0.257150362
70000.0,0.250911614
75000.0,0.239521457
78750.0,0.231763673
82500.0,0.224636068
90000.0,0.211934284
95000.0,0.204427965
99999.999,0.197578143
100000.001,0.196924
107244.703,0.188016819
114601.537,0.179940098
122066.552,0.1725803
129636.0,0.165844
138751.0,0.158693
144423.615,0.148488657
150000.0,0.139445
156300.069,0.133319472
162584.619,0.127702832
168854.317,0.122534453
175109.785,0.117762943
181351.559,0.11334449
187580.201,0.109241445
193796.195,0.105421339
200000.0,0.101856
212397.664,0.0967493259
224865.601,0.0921426753
237400.684,0.087965474
250000.0,0.0841599
262334.343,0.0813241061
274781.191,0.0786848054
287337.41,0.0762218791
300000.0,0.0739179
317044.472,0.0715311858
334340.748,0.0693096152
351882.852,0.067236105
369665.0,0.0652959
385767.187,0.0629137635
401927.109,0.06070314
418142.852,0.05864602
434412.598,0.0567268423
450734.782,0.0549320731
467107.712,0.053249922
500000.0,0.0501833
579311.0,0.0461512
700000.0,0.0416806
800000.0,0.0388534
829265.0,0.0375445
864677.751,0.0358659028
900000.0,0.0343291
947748.915,0.0328106767
987056.0,0.0316511
1021090.0,0.0307414
1085800.0,0.0292376
1093800.0,0.0284486
1102720.0,0.0278746
1124290.0,0.0266621
1159630.0,0.0250946
1203573.48,0.0237765044
1247040.0,0.0225838
1272760.0,0.0220736
1314891.05,0.0213724333
1357030.0,0.0207145
1402700.0,0.0201741
1510060.0,0.0193402
1609310.0,0.0189694
1688310.0,0.0188311
1782600.0,0.0187473
1837141.58,0.0181243892
1891552.59,0.0175408655
2000000.0,0.016478
2038284.88,0.0157375408
2075898.56,0.0150550169
2112875.62,0.0144240978
2149247.96,0.0138393247
2185043.96,0.0132959845
2220291.4,0.0127899516
2289238.19,0.0118758756
2356257.81,0.0110733485
2421513.64,0.0103636165
2485139.53,0.00973193438
2547254.34,0.00916646788
2607926.82,0.00865791806
2667287.19,0.00819809498
2725418.05,0.00778052788
2782394.32,0.00739982167
2838280.98,0.00705146413
2893141.39,0.00673161369
2947030.79,0.00643701754
3072838.44,0.00579057584
3143867.87,0.00545516422
3213213.47,0.00515308107
3280987.63,0.00487974804
3347286.89,0.00463138992
3412204.76,0.00440483089
3475822.07,0.00419741479
3538212.62,0.00400689145
3599426.51,0.00383139175
3659542.13,0.0036692207
3718615.12,0.00351896587
3776696.95,0.00337940346
3833833.59,0.00324947205
3890069.93,0.00312823863
4071503.31,0.00276574722
4141494.95,0.00263486202
4210061.24,0.00251463102
4277281.23,0.00240384855
4343224.75,0.00230148448
4407959.58,0.00220664497
4471545.89,0.00211855901
4534039.38,0.00203655516
4655928.75,0.00188854223
4774015.25,0.00175868362
4888613.48,0.00164393961
5000000.0,0.0015419
5124543.63,0.00143653839
5245410.4,0.00134335838
5362887.68,0.00126043211
5477230.0,0.00118621
5612796.38,0.00111317611
5744958.58,0.00104783645
5873955.16,0.000989074054
6000000.0,0.000935974
6122317.49,0.000900615841
6243172.88,0.000867641428
6480740.0,0.000807963
6740711.66,0.000773677743
7000000.0,0.000742144
7237620.0,0.000725816
7483310.0,0.000733302
8000000.0,0.000802772
8235183.28,0.000853925506
8485280.0,0.000910167
8733280.05,0.000983989935
9000000.0,0.00106748
10000000.0,0.00120706
11000000.0,0.00117684
11498287.7,0.00113768351
12000000.0,0.00110117
13000000.0,0.00103918
14000000.0,0.00100054
15000000.0,0.000982735
16000000.0,0.000981392
17000000.0,0.0009929501
18000000.0,0.00101489
19000000.0,0.00104536
20000000.0,0.00108314
