energy [eV],cross section [b]
1e-05,7455.42529
1.08746991e-05,7149.30752
1.20409645e-05,6794.26066
1.26921059e-05,6617.68562
1.34112562e-05,6437.81356
1.44899815e-05,6193.5469
1.56525788e-05,5959.09949
1.69829201e-05,5720.94373
1.83132614e-05,5509.23485
1.93035911e-05,5366.05702
2.03973561e-05,5220.2058
2.20380036e-05,5022.13956
2.38062132e-05,4832.0354
2.51551023e-05,4700.69963
2.78528805e-05,4467.2581
2.93590859e-05,4351.16096
3.10226075e-05,4232.8961
3.43496508e-05,4022.68737
3.72329548e-05,3863.7969
3.9284498e-05,3761.55886
4.13360411e-05,3667.02989
4.46526203e-05,3528.22361
4.84477282e-05,3387.22193
5.22428362e-05,3261.87845
5.66280912e-05,3133.04111
5.97483103e-05,3050.1408
6.44286388e-05,2937.27218
6.79127582e-05,2860.93972
7.1760778e-05,2783.18209
7.75328076e-05,2677.58724
8.13808274e-05,2613.52184
8.61264096e-05,2540.50466
9.08719919e-05,2473.28479
9.56175741e-05,2411.13359
0.000100363156,2353.44451
0.00010621566,2287.69465
0.000114994416,2198.64836
0.000123773172,2119.25255
0.0001345996,2032.24627
0.000145426028,1955.14691
0.000157094221,1881.14721
0.000165995372,1830.02384
0.000179347097,1760.59852
0.000193736933,1693.96442
0.000204714304,1647.9297
0.000226669046,1566.10626
0.00023892667,1525.41342
0.000252464547,1483.96101
0.0002795403,1410.28245
0.000294657052,1373.64034
0.000311352681,1336.31431
0.000336396123,1285.62597
0.000363386719,1236.97582
0.000394271621,1187.55681
0.000425156523,1143.62634
0.000460844092,1098.47197
0.000486236693,1069.41779
0.000524325594,1029.86111
0.000568337397,989.202532
0.000599652901,963.041224
0.000646626155,927.423252
0.000681593877,903.335431
0.000720213818,878.798266
0.000758833759,856.159393
0.000840577751,813.497089
0.000912019993,781.011859
0.00100727632,743.199333
0.00109538268,712.713551
0.00118348905,685.700016
0.00127844577,659.773522
0.00135088407,641.862599
0.00145954152,617.540569
0.00157664719,594.197512
0.00166598194,578.071471
0.0017553167,563.193368
0.00188931883,542.88837
0.00199949119,527.7477
0.00210966355,513.809856
0.00233000827,488.963194
0.00246587868,475.332309
0.00260174908,462.784465
0.00287348989,440.416136
0.00312483378,422.383494
0.00337617767,406.405988
0.00364706381,391.072686
0.00395703444,375.499028
0.00426700506,361.656877
0.00462517676,347.431157
0.00488002492,338.27898
0.00526229715,325.820202
0.00554686737,317.395751
0.00586115964,308.815245
0.00617545192,300.899626
0.00684069129,285.985959
0.00722829321,278.264398
0.00761589512,271.141426
0.00843630363,257.721922
0.00915332052,247.507125
0.00987033741,238.429863
0.0106988519,229.103102
0.0115831152,220.278167
0.0124673785,212.413052
0.0131943921,206.550336
0.0142849125,198.613884
0.0153754329,191.541367
0.0162720247,186.269973
0.0171686165,181.419277
0.0180652083,176.936354
0.0189618001,172.777147
0.0200675247,168.039159
0.0211732493,163.679781
0.0222789739,159.65137
0.0243423492,152.887185
0.0270696257,145.171936
0.0288392515,140.767636
0.0313618181,135.152274
0.0338843847,130.18282
0.0366030835,125.419682
0.0386770589,122.133193
0.041788022,117.676246
0.0451408656,113.405862
0.0476986021,110.460345
0.0515352069,106.467248
0.0540929435,104.048875
0.05724728,101.296929
0.0604016164,98.7679357
0.0667102894,94.2710943
0.0706003845,91.8111676
0.0744904797,89.5516431
0.0822706701,85.5369353
0.0894668779,82.3144778
0.0966630857,79.4714297
0.104418806,76.7553072
0.110335303,74.8869872
0.119210049,72.3618275
0.127148,70.342277
0.133939175,68.7668342
0.147521524,65.9684304
0.163311176,63.1940526
0.181308133,60.5189149
0.195855311,58.6557521
0.206952712,57.3819922
0.223598814,55.6722933
0.248382119,53.4929701
0.275753927,51.4865477
0.304045373,49.7548117
0.333256458,48.2527402
0.356952564,47.2067568
0.377767635,46.3946317
0.419397778,45.0184613
0.458219,43.9786643
0.500556427,43.0588127
0.542893854,42.3215804
0.568576,41.9498616
0.59381338,41.6334842
0.64428814,41.129165
0.678933,40.8705313
0.7341115,40.5862731
0.807492206,40.4193582
0.899647,40.5016067
0.98241475,40.8174382
1.06932559,41.3724197
1.14795025,42.0610085
1.25580951,43.2874285
1.341075,44.4900476
1.3962535,45.3816787
1.451432,46.3660965
1.54873095,48.3411807
1.64455675,50.6101814
1.7273245,52.8573716
1.782503,54.5190571
1.8376815,56.3239055
1.89286,58.2841953
1.93328716,59.8271283
1.97990705,61.7274201
2.03080625,63.9621299
2.08598475,66.590997
2.14116325,69.4565021
2.19634175,72.5846049
2.25152025,76.0052546
2.2791095,77.8359102
2.334288,81.7620907
2.37247589,84.7048146
2.41705575,88.3982845
2.444645,90.8354655
2.4998235,96.0931945
2.54120737,100.406941
2.59638588,106.718157
2.63776975,111.923414
2.67915362,117.584937
2.7205375,123.756991
2.74812675,128.185892
2.775716,132.890338
2.81709987,140.515124
2.84468912,146.015618
2.87227837,151.884707
2.89549125,157.132903
2.9230805,163.771608
2.96884075,175.852201
3.01022462,188.087857
3.03781387,197.035859
3.06540312,206.695088
3.106787,222.69036
3.13437625,234.491998
3.1619655,247.32897
3.18955475,261.326565
3.217144,276.629682
3.24473325,293.406643
3.2723225,311.853883
3.29991175,332.201784
3.327501,354.721968
3.34405455,369.40832
3.35784917,382.389299
3.3826795,407.629456
3.4047509,432.323166
3.4157866,445.556411
3.437858,473.991689
3.4488937,489.282024
3.4709651,522.257742
3.4820008,540.056263
3.49855435,568.571388
3.5151079,599.485094
3.53166145,633.074806
3.548215,669.659219
3.56476855,709.605873
3.58248859,756.577558
3.59787565,801.357824
3.6144292,854.236643
3.63098275,912.656134
3.6475363,977.418144
3.658572,1024.57931
3.6696077,1075.30456
3.68616125,1158.89275
3.69719695,1220.24561
3.70823265,1286.67959
3.71926835,1358.76984
3.72754512,1416.942
3.7358219,1478.97729
3.7468576,1568.3078
3.7578933,1666.06779
3.768929,1773.3456
3.7799647,1891.4094
3.7910004,2021.7436
3.8020361,2166.09413
3.8130718,2326.52491
3.81858965,2413.51944
3.8241075,2505.48891
3.82962535,2602.81547
3.83790212,2759.77749
3.84341997,2872.42111
3.85169675,3054.71895
3.8572146,3186.01504
3.86549137,3399.3079
3.87100922,3553.53052
3.879286,3805.11089
3.88480385,3987.79893
3.89308062,4287.17413
3.89859848,4505.59258
3.90687525,4865.31234
3.90963417,4994.65204
3.91515202,5268.96014
3.91791095,5414.47639
3.9234288,5723.73629
3.92618772,5888.14004
3.93170557,6238.31072
3.9344645,6424.87702
3.93998235,6823.17565
3.94274127,7035.88082
3.94825912,7491.09166
3.95377697,7990.07193
3.95929482,8538.28264
3.96481267,9141.99434
3.97033052,9808.41743
3.97584837,10545.8518
3.97998676,11151.2264
3.98274569,11582.2018
3.98550461,12036.7953
3.98826354,12516.5868
3.99102246,13023.2695
3.99378139,13558.6566
3.99654031,14124.6875
3.99929924,14723.4339
4.00205816,15357.1055
4.00481709,16028.0537
4.00757601,16738.7744
4.01033494,17491.9086
4.01447332,18707.2612
4.01723225,19578.9001
4.02137064,20986.2053
4.02412956,21995.6517
4.02826795,23624.8399
4.03240634,25401.7269
4.03654472,27336.5744
4.04068311,29438.1859
4.04344204,30935.1194
4.04592507,32348.9129
4.04923578,34331.8176
4.05144292,35714.7189
4.0558572,38618.8941
4.06247862,43268.5298
4.07461789,52124.536
4.07903217,55142.129
4.08234288,57207.6399
4.08455002,58455.9348
4.08675716,59579.6336
4.0889643,60560.9434
4.09117144,61383.4194
4.09337858,62032.6
4.09558572,62496.6066
4.09779286,62766.665
4.09988964,62838.7354
4.10220714,62707.6201
4.10441428,62379.3199
4.10662142,61858.6448
4.10882856,61155.0762
4.1110357,60281.1116
4.11324284,59251.7245
4.11544998,58083.7534
4.11765712,56795.2631
4.12096783,54677.4082
4.12538211,51604.84
4.13752138,42673.7401
4.14193566,39533.2526
4.14634994,36545.0221
4.15076422,33739.3542
4.1551785,31131.4115
4.15931689,28869.7562
4.16345527,26782.6324
4.16759366,24863.2056
4.17035259,23672.235
4.17311151,22548.5848
4.17587044,21488.9934
4.17862936,20490.1364
4.18138829,19548.6928
4.18414721,18661.3934
4.18690614,17825.0576
4.18966506,17036.6182
4.19242399,16293.1386
4.19518291,15591.8237
4.1993213,14613.1575
4.20208022,14005.9923
4.20483915,13432.3692
4.20897754,12630.1866
4.21173646,12131.3626
4.21449539,11659.1824
4.21863377,10997.2103
4.22277216,10386.1965
4.22691055,9821.44402
4.2324284,9133.16677
4.23518733,8814.25953
4.24070517,8221.94044
4.2434641,7946.74219
4.24898195,7434.24732
4.25174087,7195.50259
4.25725872,6749.75339
4.26001765,6541.57069
4.2655355,6151.92685
4.26829442,5969.50286
4.27381227,5627.27005
4.27933012,5312.5963
4.28208905,5164.71059
4.2876069,4886.26048
4.29312475,4629.01514
4.29588367,4507.69786
4.30140152,4278.5116
4.30691937,4065.85975
4.31243723,3868.22908
4.320714,3597.03816
4.32623185,3431.37213
4.3317497,3276.60147
4.33726755,3131.81085
4.3427854,2996.17713
4.34830325,2868.95874
4.3538211,2749.48631
4.35933895,2637.15458
4.3648568,2531.41526
4.37037465,2431.7709
4.37865142,2292.75453
4.38416927,2206.45695
4.38968713,2124.84012
4.3979639,2010.48226
4.4089996,1871.5554
4.41811511,1767.17526
4.42555315,1688.21672
4.43658885,1580.29337
4.44762455,1482.21248
4.4531424,1436.49735
4.4641781,1351.07782
4.46969595,1311.14459
4.48073165,1236.31803
4.4862495,1201.24035
4.4972852,1135.34099
4.50280305,1104.36951
4.51383875,1046.04429
4.52487445,992.140177
4.5303923,966.709009
4.541428,918.643181
4.55798155,852.884938
4.56901725,812.824189
4.5855708,757.735664
4.5966065,724.009296
4.6076422,692.445528
4.6186779,662.86487
4.63523145,621.863695
4.64626715,596.569394
4.65730285,572.75947
4.66833855,550.32096
4.67937425,529.151389
4.69040995,509.157631
4.70144565,490.25491
4.71248135,472.365914
4.7290349,447.280349
4.7511063,416.77068
4.7731777,389.223355
4.7952491,364.269902
4.8173205,341.597168
4.83387405,325.926947
4.85594545,306.624926
4.872499,293.229957
4.90008825,272.741245
4.91388287,263.2769
4.94147212,245.740016
4.96906137,229.865174
4.982856,222.486766
5.01044525,208.736238
5.0380345,196.197324
5.05182912,190.338668
5.07941837,179.366447
5.10700762,169.297731
5.13459687,160.037012
5.16218612,151.501026
5.18977537,143.616924
5.21736462,136.320747
5.24495387,129.556164
5.27254312,123.273404
5.30013237,117.428367
5.32772162,111.981867
5.35531087,106.898989
5.39669475,99.8891495
5.424284,95.5859157
5.44865408,92.0083266
5.49325712,85.9536004
5.534641,80.8480671
5.57602487,76.179167
5.61740875,71.8995222
5.65879262,67.9680095
5.7001765,64.348801
5.755355,59.9554202
5.78294425,57.9258452
5.83812275,54.1658376
5.865712,52.4230201
5.9208905,49.1843299
5.94847975,47.6787245
6.00365825,44.8733343
6.0312475,43.5658287
6.086426,41.1239442
6.15,38.5702621
6.215584,36.1947141
6.286456,33.888981
6.357328,31.8237838
6.4282,29.9725824
6.499072,28.3133305
6.569944,26.8278581
6.60538,26.1455569
6.676252,24.8940915
6.71956945,24.1999844
6.78256,23.2821282
6.853432,22.3749145
6.924304,21.5981755
6.95974,21.2588713
7.030612,20.6808649
7.066048,20.4440477
7.119202,20.1581128
7.154638,20.0166745
7.207792,19.8851636
7.243228,19.8565239
7.296382,19.9139382
7.331818,20.0281139
7.367254,20.2121498
7.40269,20.4760411
7.438126,20.8322916
7.473562,21.2966502
7.508998,21.8891167
7.544434,22.6353361
7.562152,23.0761282
7.57987,23.5685616
7.606447,24.4169777
7.624165,25.0659098
7.641883,25.7910844
7.66846,27.0435783
7.686178,28.0057668
7.695037,28.5302756
7.7180704,30.047813
7.7287012,30.8320489
7.7464192,32.274382
7.7605936,33.5655702
7.774768,34.9963293
7.7818552,35.7699
7.7960296,37.4469236
7.810204,39.3179862
7.8243784,41.4122554
7.8385528,43.7646186
7.8527272,46.4170781
7.8669016,49.4205581
7.8739888,51.0728515
7.881076,52.8372689
7.8917068,55.7164257
7.898794,57.8076887
7.9058812,60.0516488
7.9129684,62.4631484
7.9200556,65.058872
7.9271428,67.8576267
7.93423,70.8806715
7.9413172,74.1521096
7.9484044,77.6993533
7.9554916,81.5536811
7.9625788,85.7509051
7.969666,90.3321761
7.9767532,95.3449593
7.9838404,100.844221
7.987384,103.795861
7.9944712,110.147971
8.0015584,117.16718
8.0086456,124.948584
8.0157328,133.604625
8.0192764,138.301449
8.02282,143.268965
8.0263636,148.528001
8.0299072,154.101398
8.0352226,163.106463
8.0387662,169.581065
8.0440816,180.079715
8.0476252,187.656101
8.0529406,199.989451
8.058256,213.627828
8.0635714,228.757112
8.0688868,245.59652
8.0742022,264.40578
8.0795176,285.494095
8.0812894,293.091922
8.084833,309.231369
8.0866048,317.806845
8.0901484,336.062347
8.0919202,345.783309
8.0954638,366.52445
8.0972356,377.594378
8.1007792,401.270358
8.1043228,427.200575
8.1078664,455.663713
8.1105241,478.863945
8.1140677,512.557645
8.1176113,549.783188
8.1211549,591.010822
8.1246985,636.782307
8.1264703,661.563448
8.1282421,687.72156
8.1300139,715.349351
8.1317857,744.546119
8.1335575,775.41811
8.1362152,825.117556
8.137987,860.690967
8.1397588,898.370655
8.1415306,938.297565
8.1441883,1002.72939
8.1459601,1048.94277
8.1486178,1123.56927
8.1503896,1177.11237
8.1530473,1263.56296
8.155705,1357.91605
8.1583627,1460.75702
8.1601345,1534.29634
8.1619063,1611.97327
8.16491836,1753.77482
8.1681076,1917.40328
8.17094248,2074.08949
8.17306864,2197.91782
8.1751948,2326.32528
8.18440816,2900.20288
8.18724304,3063.48397
8.1893692,3174.03944
8.19078664,3240.16208
8.19220408,3299.0438
8.19362152,3349.73309
8.19503896,3391.36707
8.1964564,3423.20577
8.19787384,3444.66362
8.20014174,3456.46721
8.20141744,3450.72671
8.20283488,3433.99075
8.20425232,3406.65981
8.20566976,3369.23775
8.2070872,3322.39606
8.20850464,3266.94474
8.20992208,3203.79901
8.21133952,3133.94429
8.21346568,3018.8188
8.21630056,2851.32559
8.22409648,2362.57467
8.22693136,2190.26442
8.22976624,2026.14821
8.23260112,1871.93459
8.235436,1728.49262
8.2380937,1604.02832
8.2407514,1489.11587
8.2425232,1417.64203
8.244295,1350.11161
8.2460668,1286.36238
8.2478386,1226.22065
8.2496104,1169.50669
8.2513822,1116.03892
8.253154,1065.63707
8.2558117,995.398095
8.2575835,951.900739
8.2593553,910.87748
8.262013,853.648365
8.2637848,818.157153
8.2655566,784.638581
8.2682143,737.78759
8.2699861,708.66959
8.2717579,681.119208
8.2744156,642.517279
8.2770733,606.912376
8.279731,574.027143
8.2832746,533.983196
8.2850464,515.442832
8.28775987,488.790036
8.2903618,465.05534
8.2939054,435.323469
8.2956772,421.482422
8.2992208,395.657346
8.3027644,372.080356
8.3045362,361.057701
8.3080798,340.406835
8.3116234,321.452242
8.3133952,312.555634
8.3169388,295.82481
8.3204824,280.392384
8.3222542,273.122742
8.3257978,259.404201
8.3293414,246.69317
8.332885,234.895752
8.3382004,218.732518
8.341744,208.873402
8.3452876,199.672993
8.3488312,191.074995
8.3523748,183.028878
8.3559184,175.489195
8.359462,168.415001
8.3630056,161.76933
8.3665492,155.518756
8.3700928,149.632996
8.3754082,141.428961
8.3789518,136.34041
8.3824954,131.530868
8.3878108,124.79683
8.394898,116.623565
8.3984416,112.847524
8.4055288,105.849707
8.412616,99.5137654
8.4197032,93.7593063
8.4232468,91.0782773
8.430334,86.0704367
8.4338776,83.7299894
8.439193,80.4063314
8.4445084,77.2905096
8.4515956,73.4303744
8.4551392,71.6163534
8.46577,66.5911076
8.4764008,62.1195601
8.4870316,58.1232547
8.4976624,54.5370904
8.5047496,52.3469439
8.5153804,49.3278827
8.5224676,47.475006
8.5330984,44.9091198
8.5401856,43.3273941
8.5508164,41.1279044
8.5614472,39.1150555
8.5756216,36.6862098
8.589796,34.511105
8.5968832,33.5076822
8.6110576,31.650278
8.625232,29.9705937
8.6323192,29.1902884
8.6464936,27.7364597
8.660668,26.4107679
8.6766142,25.0540479
8.6925604,23.8226147
8.704963,22.9415654
8.722681,21.786046
8.740399,20.7378913
8.758117,19.7838197
8.775835,18.9125463
8.802412,17.7401831
8.82013,17.036673
8.837848,16.3877324
8.864425,15.504268
8.891002,14.7144307
8.917579,14.0047933
8.944156,13.364272
8.979592,12.6020535
8.99731,12.2552226
9.032746,11.6207582
9.068182,11.0549218
9.103618,10.5474233
9.121336,10.3128651
9.156772,9.87761208
9.192208,9.48240662
9.227644,9.12202816
9.280798,8.63739398
9.316234,8.3464367
9.35167,8.07775696
9.404824,7.71123167
9.44026,7.48824571
9.475696,7.28034119
9.546568,6.90409999
9.61744,6.57288101
9.688312,6.27928464
9.759184,6.01755431
9.830056,5.78316678
9.900928,5.57254048
9.9718,5.38282518
10.042672,5.21174899
10.113544,5.05750643
10.184416,4.91867669
10.2993,4.72368134
10.3695,4.62168733
10.4397,4.53219148
10.545,4.42110501
10.6152,4.36269712
10.7205,4.29976001
10.7907,4.27552863
10.8609,4.26701714
10.9311,4.27610942
11.0013,4.30535086
11.0715,4.35816126
11.1417,4.43914357
11.19435,4.52204325
11.247,4.62770004
11.29965,4.76051792
11.3523,4.92618137
11.40495,5.13211521
11.44005,5.29650597
11.4576,5.38815088
11.4927,5.59302577
11.51025,5.70751189
11.54535,5.96427871
11.5629,6.10830598
11.58045,6.26410631
11.598,6.43284653
11.624325,6.71314844
11.641875,6.92039276
11.659425,7.14601679
11.676975,7.39208681
11.7033,7.80480351
11.72085,8.11314459
11.7384,8.45192536
11.75595,8.82508215
11.7735,9.23721196
11.782275,9.45954211
11.799825,9.94054248
11.81562,10.4196845
11.827905,10.8265468
11.838435,11.2017558
11.84721,11.5348262
11.85774,11.9611821
11.86476,12.2628819
11.8788,12.9123767
11.88582,13.262248
11.89986,14.0181104
11.90688,14.4267636
11.92092,15.313091
11.92794,15.7942229
11.94198,16.8423329
11.95251,17.7126102
11.96304,18.6650448
11.97357,19.7101884
11.9841,20.8603371
11.99463,22.1298877
12.00165,23.0508344
12.00867,24.0380727
12.0192,25.657566
12.02622,26.8405658
12.03324,28.1162334
12.04377,30.2253798
12.05079,31.7787626
12.05781,33.4656007
12.063075,34.8275988
12.06834,36.2807949
12.07536,38.3746355
12.08238,40.6675842
12.0894,43.1854199
12.09642,45.9581879
12.10344,49.0210659
12.11046,52.4154384
12.11748,56.1902399
12.12099,58.2380648
12.1245,60.4036432
12.12801,62.6960403
12.13152,65.1251969
12.13503,67.7020307
12.140295,71.8707778
12.143805,74.8720634
12.147315,78.0687449
12.150825,81.4778145
12.15609,87.0314191
12.1596,91.0585156
12.164865,97.6477348
12.168375,102.447442
12.17364,110.338661
12.17715,116.115347
12.178905,119.174283
12.182415,125.663068
12.18417,129.105941
12.18768,136.424381
12.189435,140.315644
12.192945,148.605434
12.1947,153.022973
12.19821,162.455768
12.199965,167.494167
12.203475,178.278948
12.20523,184.053637
12.20874,196.446035
12.210495,203.098519
12.214005,217.412579
12.21576,225.117027
12.21927,241.739926
12.22278,260.161373
12.224535,270.121562
12.22629,280.625844
12.228045,291.7106
12.2298,303.414842
12.231555,315.780374
12.23331,328.851948
12.235065,342.677424
12.23682,357.307902
12.238575,372.797847
12.24033,389.205179
12.242085,406.591312
12.24384,425.021147
12.245595,444.562966
12.24735,465.288238
12.249105,487.271268
12.2517375,522.772167
12.2534925,548.237944
12.256125,589.330188
12.25788,618.764721
12.2605125,666.150566
12.263145,717.590178
12.266304,784.84011
12.269112,849.672292
12.27192,919.02184
12.27543,1011.17851
12.283854,1242.59951
12.286662,1315.28605
12.288768,1365.19486
12.290172,1395.44774
12.291576,1422.76623
12.29298,1446.72213
12.294384,1466.91808
12.295788,1483.00284
12.297192,1494.68575
12.298596,1501.74937
12.3000702,1504.04891
12.301404,1501.5709
12.302808,1494.33056
12.304212,1482.47436
12.305616,1466.22131
12.30702,1445.86351
12.308424,1421.75343
12.309828,1394.28942
12.311232,1363.90049
12.313338,1313.80651
12.316146,1240.90959
12.323868,1028.12791
12.326676,953.095267
12.329484,881.624701
12.332292,814.461719
12.334398,767.15571
12.336855,715.376636
12.3394875,663.949211
12.3412425,631.93208
12.3429975,601.66441
12.3447525,573.079241
12.347385,533.194592
12.34914,508.487048
12.350895,485.193193
12.3535275,452.731882
12.3552825,432.632742
12.3570375,413.681288
12.35967,387.253663
12.3623025,363.029181
12.364935,340.803196
12.3675675,320.388708
12.3702,301.615778
12.3728325,284.330578
12.375465,268.394248
12.378975,249.029646
12.38073,240.080301
12.38424,223.500134
12.385995,215.816329
12.389505,201.542111
12.39126,194.908837
12.39477,182.553466
12.39828,171.299053
12.400035,166.046173
12.403545,156.220671
12.407055,147.221104
12.410565,138.960787
12.414075,131.363658
12.417585,124.362824
12.421095,117.899328
12.424605,111.921087
12.428115,106.381988
12.431625,101.241118
12.435135,96.4620889
12.438645,92.0124766
12.442155,87.8633221
12.445665,83.9887103
12.449175,80.3654023
12.452685,76.9725185
12.456195,73.7912623
12.459705,70.8046815
12.46497,66.6567213
12.46848,64.092949
12.47199,61.6762539
12.477255,58.3034338
12.48252,55.2045292
12.48954,51.4499475
