energy [eV],cross section [b]
1e-05,5052.22309
1.05905001e-05,4909.35275
1.14762504e-05,4716.0934
1.20667505e-05,4599.25186
1.27269888e-05,4478.36491
1.34569651e-05,4355.20587
1.41869414e-05,4241.67909
1.49169177e-05,4136.59109
1.57331043e-05,4027.86462
1.70866994e-05,3865.03011
1.88914929e-05,3675.77307
2.05648074e-05,3523.05464
2.22381218e-05,3387.91512
2.40431818e-05,3258.25794
2.54222161e-05,3168.65258
2.68012503e-05,3086.05522
2.88698017e-05,2973.43987
3.05745639e-05,2889.35426
3.31317072e-05,2775.61243
3.48364695e-05,2706.8459
3.67425641e-05,2635.69846
3.88499913e-05,2563.21377
4.09574185e-05,2496.39808
4.30648456e-05,2434.54899
4.542116e-05,2370.55848
4.93289623e-05,2274.72286
5.45393655e-05,2163.33631
5.9370191e-05,2073.45438
6.42010165e-05,1993.91841
6.94121891e-05,1917.60902
7.33934337e-05,1864.87198
7.73746782e-05,1816.25947
8.3346545e-05,1749.9799
8.82681597e-05,1700.49142
9.56505818e-05,1633.54877
0.000100572196,1593.07626
0.000106075054,1551.20244
0.000112159154,1508.54156
0.000118243255,1469.21714
0.000124327355,1432.81578
0.000131129988,1395.15407
0.000142411736,1338.74981
0.000157454067,1273.19292
0.000171400564,1220.29254
0.000185347062,1173.48125
0.000200391614,1128.5689
0.000211885388,1097.53016
0.000229126049,1055.4275
0.000247724125,1015.03276
0.000261932729,987.116094
0.000276141333,961.382727
0.000297454239,926.297097
0.000315018916,900.099907
0.000332583593,876.006385
0.000367712948,833.106494
0.00040028313,798.488807
0.00044371004,758.402069
0.000481408942,728.096867
0.000521672204,699.430062
0.000561935466,673.902127
0.000611708912,645.897819
0.000644891209,629.057642
0.000694664656,606.097153
0.000735684614,588.953295
0.000797214552,565.762757
0.000858744489,545.111386
0.000909453364,529.691643
0.000960162239,515.510043
0.00101087111,502.409278
0.00106157999,490.258674
0.0011242663,476.389559
0.00121829577,457.628683
0.00128098209,446.285998
0.00135107166,434.550459
0.00146731089,416.97441
0.00158355013,401.370672
0.00171809318,385.325589
0.00181388982,375.006157
0.00195758477,360.971174
0.00212390689,346.539144
0.0022423307,337.257105
0.00241996641,324.632972
0.00255237607,316.092939
0.00269877158,307.392183
0.0028451671,299.371705
0.00299156262,291.947224
0.00315524745,284.265475
0.00342670867,272.760446
0.00378865696,259.387802
0.00412423733,248.596266
0.00445981771,239.046346
0.00482181945,229.883288
0.00509838243,223.550393
0.00551322691,214.95961
0.00596073349,206.716717
0.00630262067,201.019703
0.00664450785,195.767937
0.00715733862,188.607013
0.00757997957,183.259784
0.00800262052,178.341596
0.00884790242,169.583559
0.00937037119,164.772766
0.00989283996,160.347894
0.0109377775,152.468127
0.0119065914,146.108535
0.0128754053,140.480024
0.0139204971,135.078905
0.0151181449,129.590704
0.0163157927,124.71745
0.0177020301,119.705348
0.0186890516,116.481201
0.0201695839,112.095349
0.0212427078,109.206613
0.0224019342,106.321807
0.0241407737,102.389728
0.0255437188,99.5136218
0.0270520758,96.6738169
0.0293146113,92.8312056
0.0308229683,90.5072686
0.0325094622,88.1022146
0.0353064087,84.498913
0.0381033552,81.2985018
0.0413407276,78.0059615
0.044798313,74.8896878
0.0482558984,72.113034
0.0511054099,70.0387124
0.0553796772,67.2311389
0.0596539445,64.7292194
0.0631765108,62.8599213
0.0666990771,61.1397366
0.0702216434,59.5497487
0.0737442097,58.074241
0.0780988064,56.3889849
0.0824534031,54.8379669
0.0868079998,53.4041636
0.0911625964,52.0734314
0.0965457491,50.5533245
0.104620478,48.4949079
0.112695207,46.6595575
0.122677188,44.6433565
0.132659168,42.8564824
0.143427063,41.1393861
0.151653547,39.9510006
0.163993271,38.3365552
0.177304544,36.7846799
0.187474123,35.710348
0.197643702,34.7185936
0.207813282,33.7992345
0.219183888,32.8466099
0.231755522,31.8744742
0.244327157,30.9768309
0.256898791,30.1445062
0.270955136,29.2818457
0.286496191,28.4012763
0.309807773,27.2038773
0.334954755,26.051583
0.363772534,24.8771187
0.392590314,23.8309414
0.414071088,23.1212042
0.437820782,22.3963244
0.473445323,21.4099581
0.511874703,20.460006
0.541234076,19.8012955
0.570593449,19.1924148
0.599952823,18.6272841
0.632779539,18.0409931
0.669073597,17.4419474
0.723514686,16.626448
0.782242103,15.8407288
0.84954218,15.0390467
0.916842256,14.3243378
0.994739854,13.5864322
1.05020409,13.1102459
1.13340045,12.4606235
1.22242402,11.8382438
1.28327206,11.4496646
1.3441201,11.0871543
1.43539215,10.5863442
1.52015208,10.1615555
1.60491201,9.7704271
1.7320519,9.23802753
1.81292093,8.92883602
1.89417785,8.63836921
2.02248139,8.2161658
2.19355278,7.71283452
2.38784676,7.20986124
2.51737609,6.90864414
2.71167007,6.50002222
2.87179423,6.19690392
3.03191839,5.91999942
3.19204255,5.66611252
3.35216671,5.4325711
3.489125,5.24724834
3.62425,5.07618845
3.759375,4.91580638
3.8945,4.7652034
4.08158651,4.57136459
4.2662988,4.39509645
4.38864891,4.28585296
4.63334914,4.0835955
4.75569926,3.98990736
5.00039949,3.81594234
5.2697072,3.64314158
5.5636224,3.47426322
5.86612084,3.31941272
6.17720253,3.17791311
6.46487168,3.06135689
6.8132,2.93669014
7.18074,2.8227277
7.45619443,2.7480711
7.82853773,2.66058073
8.1104,2.60392704
8.55361,2.53042628
8.78062,2.49981304
9.1914,2.45605642
9.4076,2.43892894
9.67763881,2.42319494
10.0562,2.41174235
10.2724,2.41082592
10.7048,2.42163487
11.1372,2.45015856
11.3534,2.47151018
11.5696,2.49790206
11.9634977,2.5599248
12.3263,2.63461763
12.5425,2.68806051
12.7587,2.74886331
12.9749,2.81769402
13.1911,2.89532803
13.4073,2.9826668
13.6235,3.08076049
13.8397,3.19083595
14.028875,3.29810522
14.2721,3.45293773
14.43425,3.56799879
14.5964,3.69365479
14.8549883,3.91878931
15.08285,4.1461817
15.245,4.32713127
15.40715,4.52617878
15.51525,4.67003859
15.62335,4.8237078
15.73145,4.98803505
15.83955,5.16396514
15.94765,5.35255239
16.05575,5.5549762
16.16385,5.77255924
16.27195,6.00678883
16.38005,6.25934216
16.5422,6.67674729
16.6503,6.98397838
16.7584,7.31738345
16.8665,7.67995657
17.001625,8.17947802
17.109725,8.62106326
17.24485,9.23333278
17.2989,9.49922192
17.379975,9.923019
17.4475375,10.3010004
17.5151,10.7036216
17.5826625,11.1330585
17.650225,11.5917336
17.7177875,12.0823504
17.7921062,12.662542
17.8630469,13.2600052
17.934832,13.9126251
18.0066172,14.6188343
18.0792469,15.3940479
18.1332969,16.0147622
18.190725,16.7193443
18.2515312,17.5208642
18.3068534,18.3046081
18.3677256,19.233241
18.4271938,20.2146128
18.488,21.3023819
18.5488062,22.485282
18.6096125,23.7747532
18.677175,25.3486336
18.731225,26.728392
18.7987875,28.6246851
18.86635,30.7389358
18.893375,31.653233
18.9339125,33.1059395
18.9609375,34.132645
19.001475,35.7677336
19.0420125,37.5271457
19.08255,39.4238368
19.109575,40.7717384
19.1501125,42.9308572
19.1771375,44.4696568
19.217675,46.9420433
19.2447,48.7096369
19.2852375,51.5590774
19.3122625,53.6032606
19.3528,56.9106556
19.379825,59.292397
19.4203625,63.161581
19.4609,67.4302153
19.5014375,72.155324
19.541975,77.404486
19.5825125,83.2582677
19.62305,89.8133369
19.6568312,95.8951385
19.6771,99.8497084
19.6973687,104.05733
19.7176375,108.54008
19.7379063,113.322494
19.758175,118.431904
19.7784438,123.898829
19.7987125,129.757432
19.8189813,136.046054
19.83925,142.807838
19.866275,152.644645
19.8865438,160.711075
19.909515,170.657523
19.931135,180.894048
19.94735,189.192767
19.95816,195.04882
19.97978,207.612698
19.99059,214.357699
20.006805,225.112331
20.028425,240.765336
20.039235,249.21444
20.05545,262.751075
20.06626,272.400308
20.082475,287.906255
20.093285,298.993631
20.1095,316.869314
20.12031,329.694702
20.136525,350.447355
20.15274,373.227153
20.168955,398.306084
20.179765,416.457967
20.19598,446.105308
20.212195,479.035235
20.22841,515.748476
20.244625,556.84442
20.25003,571.637729
20.26084,603.045231
20.266245,619.726193
20.277055,655.227071
20.2851625,683.886583
20.29327,714.460918
20.298675,735.992309
20.309485,782.066445
20.320295,832.581834
20.331105,888.122672
20.3392125,933.482534
20.3500225,999.530366
20.3608325,1072.78034
20.3716425,1154.30516
20.3770475,1198.5605
20.3824525,1245.38184
20.3878575,1294.96854
20.3932625,1347.53939
20.3986675,1403.33488
20.4040725,1462.61977
20.4094775,1525.68603
20.4148825,1592.85623
20.4202875,1664.48731
20.4256925,1740.97503
20.4310975,1822.75898
20.439205,1956.45063
20.44461,2053.74064
20.450015,2158.30258
20.45542,2270.85915
20.4581225,2330.38526
20.4635275,2456.48705
20.4689325,2592.80862
20.471635,2665.13885
20.47704,2818.88898
20.482445,2985.8761
20.4851475,3074.79451
20.4905525,3264.51305
20.493255,3365.76838
20.49866,3582.32844
20.5013625,3698.18908
20.5067675,3946.61062
20.50947,4079.85348
20.514875,4366.29525
20.5175775,4520.33401
20.5229825,4852.38097
20.5270363,5124.45034
20.53109,5418.44634
20.5351437,5736.57266
20.5378463,5963.26146
20.5405487,6202.54975
20.5446025,6586.97918
20.547305,6861.61216
20.5500075,7152.08619
20.55271,7459.4751
20.5554125,7784.92336
20.558115,8129.64798
20.5608175,8494.93941
20.56352,8882.16126
20.5662225,9292.74821
20.568925,9728.20172
20.5716275,10190.0828
20.57433,10680.0008
20.5770325,11199.5979
20.579735,11750.5269
20.5837887,12639.2278
20.5878425,13607.31
20.5918962,14659.2879
20.59595,15798.4006
20.600274,17110.7874
20.604598,18521.2083
20.608922,20021.5592
20.613246,21596.0318
20.625137,26056.2077
20.629461,27581.8077
20.632704,28628.9846
20.634866,29263.5456
20.637028,29836.373
20.63919,30338.4814
20.641352,30761.5382
20.643514,31098.1829
20.645676,31342.3308
20.647838,31489.4381
20.65,31536.7086
20.652162,31483.2247
20.654324,31329.9911
20.656486,31079.887
20.658648,30737.5329
20.66081,30309.0802
20.662972,29801.9443
20.665134,29224.4999
20.667296,28585.7611
20.670539,27533.1721
20.674863,26001.9445
20.686754,21534.3876
20.691078,19959.4532
20.695402,18459.43
20.699726,17049.9144
20.70405,15738.8369
20.7081037,14601.1962
20.7121575,13550.8376
20.7162113,12584.4562
20.7189137,11984.6361
20.7216162,11418.5836
20.7243187,10884.6792
20.7270212,10381.2681
20.7297237,9906.69469
20.7324262,9459.32664
20.7351288,9037.57413
20.7378312,8639.90268
20.7405337,8264.84204
20.7432363,7910.9918
20.74729,7417.1019
20.7499925,7110.63066
20.752695,6821.04487
20.7567487,6415.99718
20.7594512,6164.07767
20.7621537,5925.57907
20.7662075,5591.1563
20.7716125,5184.78731
20.774315,4996.98241
20.77972,4649.03955
20.7824225,4487.78993
20.7878275,4188.23428
20.79053,4049.02897
20.795935,3789.73879
20.7986375,3668.92466
20.8040425,3443.3137
20.8094475,3237.11275
20.81215,3140.63135
20.817555,2959.73279
20.82296,2793.5243
20.8256625,2715.45394
20.8310675,2568.53187
20.8364725,2432.88695
20.839175,2368.94678
20.84458,2248.2082
20.849985,2136.24423
20.85539,2032.24541
20.860795,1935.49114
20.8662,1845.33851
20.871605,1761.21278
20.87701,1682.59906
20.882415,1609.03518
20.88782,1540.10549
20.893225,1475.43542
20.89863,1414.68687
20.904035,1357.55405
20.90944,1303.75994
20.9175475,1228.78524
20.9229525,1182.28743
20.9283575,1138.34332
20.936465,1076.82316
20.947275,1002.16895
20.958085,934.929711
20.968895,874.164641
20.9743,845.955807
20.98511,793.444266
20.990515,768.984763
21.001325,723.308813
21.00673,701.967557
21.0148375,671.667962
21.022945,643.271349
21.033755,608.10386
21.03916,591.582699
21.04997,560.481929
21.06078,531.751947
21.066185,518.201884
21.076995,492.599093
21.09321,457.587058
21.10402,436.265149
21.120235,406.953739
21.131045,389.013258
21.141855,372.225941
21.152665,356.49549
21.16888,334.694628
21.17969,321.246554
21.1905,308.588235
21.20131,296.659273
21.21212,285.404915
21.22293,274.775436
21.23374,264.725592
21.24455,255.214149
21.26617,237.659123
21.28779,221.845988
21.30941,207.552417
21.33103,194.590367
21.35265,182.799942
21.368865,174.64304
21.38508,167.01755
21.401295,159.87843
21.4202125,152.110536
21.433725,146.901876
21.46075,137.252669
21.4742625,132.779104
21.5012875,124.461143
21.5148,120.590936
21.541825,113.37074
21.56885,106.777375
21.5823625,103.693381
21.6093875,97.9114476
21.6364125,92.5979906
21.6634375,87.7038606
21.6904625,83.1861784
21.7174875,79.0074007
21.7445125,75.1345431
21.7715375,71.5385328
21.7985625,68.1936651
21.8255875,65.0771464
21.8526125,62.1687079
21.8796375,59.4502776
21.9066625,56.9057006
21.9336875,54.5205009
21.974225,51.2134503
22.00125,49.1726047
22.028275,47.2509775
22.0688125,44.5724366
22.0958375,42.9109455
22.1228625,41.34039
22.1634,39.1410025
22.21745,36.4707205
22.244475,35.2366646
22.298525,32.9489069
22.32555,31.8875218
22.3660875,30.3889133
22.406625,28.9933505
22.460675,27.2771254
22.4877,26.4755341
22.54175,24.9747349
22.568775,24.2717094
22.6265999,22.8637001
22.7039,21.1650724
22.75795,20.0873936
22.839025,18.6190102
22.893075,17.7278638
22.97415,16.5066821
23.0282,15.7614988
23.08225,15.0657961
23.1363,14.4153025
23.217375,13.5160797
23.271425,12.9627414
23.325475,12.442862
23.379525,11.9538063
23.433575,11.4931932
23.487625,11.0588667
23.541675,10.6488707
23.595725,10.2614276
23.6768,9.71904824
23.7849,9.06085737
23.893,8.46795559
24.0011,7.93201263
24.1092,7.44598312
24.2173,7.00387621
24.298375,6.6980118
24.37945,6.41207184
24.48755,6.05892048
24.59565,5.73468215
24.70375,5.43629496
24.7578,5.29594814
24.91995,4.90673741
25.0821,4.55989039
25.24425,4.2494937
25.4064,3.97062898
25.56855,3.71917882
25.7307,3.49167543
25.89285,3.28518157
26.00095,3.15794034
26.136075,3.00946316
26.298225,2.84532374
26.460375,2.69488973
26.622525,2.55668251
26.784675,2.42941744
26.86575,2.36953241
27.108975,2.20337236
27.3522,2.05519174
27.5684,1.93654733
27.6765,1.88134487
27.8618757,1.79247523
28.0780757,1.69723618
28.3251,1.59826465
28.5413,1.51928222
28.7575,1.44664293
28.9737,1.37969562
29.1899,1.31787135
29.4061,1.26067132
29.6223,1.20765685
29.8385,1.1584409
30.0547,1.11268108
30.2709,1.07007362
30.4871,1.03034836
30.7033,0.993264441
30.9195,0.958606655
31.1357,0.926182305
31.3519,0.895818515
31.6762,0.853800797
32.1086,0.803664286
32.51938,0.761512671
32.9734,0.720347511
33.4058,0.685807907
33.82739,0.656025187
34.11926,0.637452876
34.48885,0.616147723
34.7987854,0.600064446
35.3195951,0.576445808
35.678125,0.562523869
36.13735,0.547331787
36.46705,0.538196635
36.79675,0.530517096
37.12645,0.524288795
37.452225,0.519572601
37.774075,0.516346299
38.249,0.514292973
38.6729,0.515361384
38.877,0.516924233
39.191,0.520762433
39.35585,0.523517464
39.66985,0.530291183
39.976,0.538998528
40.133,0.544347585
40.447,0.557034882
40.604,0.564463945
40.918,0.581760494
41.075,0.591754211
41.389,0.614806757
41.546,0.628043419
41.7815,0.650330835
41.9385,0.66699096
42.174,0.695045408
42.331,0.716038728
42.5665,0.751465331
42.762011,0.784976888
42.959,0.823102874
43.0375,0.839663589
43.1945,0.875392413
43.39075,0.925531432
43.567375,0.976663897
43.744,1.03443842
43.86175,1.07718742
43.9795,1.12377057
44.038375,1.14863738
44.156125,1.20183224
44.25425,1.25001981
44.372,1.31302458
44.4505,1.35850229
44.56825,1.43254556
44.64675,1.48620188
44.7645,1.57393325
44.843,1.63779288
44.96075,1.74271253
45.03925,1.81947144
45.157,1.94628019
45.2355,2.03959148
45.27475,2.08916911
45.35325,2.19472113
45.3925,2.25094052
45.471,2.37094677
45.51025,2.43503666
45.58875,2.57223585
45.628,2.6457235
45.7065,2.8035365
45.74575,2.88833917
45.82425,3.07108362
45.8635,3.16963448
45.942,3.38282254
45.98125,3.49824671
46.05975,3.74900475
46.099,3.88536965
46.13825,4.02983085
46.1775,4.18304073
46.236375,4.43085357
46.275625,4.60925077
46.3345,4.89894994
46.37375,5.10836198
46.432625,5.44993029
46.471875,5.69797407
46.53075,6.10455758
46.589625,6.55823958
46.6485,7.06658146
46.68775,7.44028078
46.707375,7.63872594
46.746625,8.06100437
46.76625,8.28581135
46.8055,8.76546608
46.825125,9.02151801
46.864375,9.56943209
46.903625,10.1702042
46.92325,10.4925626
46.9625,11.1861597
46.982125,11.5596258
47.021375,12.3662017
47.041,12.8021764
47.08025,13.7476666
47.1096875,14.5285717
47.139125,15.3791473
47.1685625,16.3079344
47.198,17.3248238
47.2323437,18.6379992
47.2470625,19.2475366
47.2666875,20.1084942
47.2814063,20.7931642
47.3010313,21.7624754
47.3182031,22.6679624
47.335375,23.631782
47.3513203,24.5834543
47.3672656,25.5943705
47.3832109,26.6695503
47.4003828,27.9056984
47.4169414,29.1816454
47.4341133,30.6003279
47.4518984,32.1824587
47.4690703,33.8302804
47.4862422,35.6088817
47.5046406,37.6758267
47.5218125,39.7727664
47.5414375,42.3922226
47.5610625,45.2806568
47.5806875,48.4761509
47.6003125,52.0237614
47.6091438,53.7489889
47.6209188,56.1865263
47.6317125,58.5700661
47.641525,60.8714236
47.649375,62.8118595
47.66115,65.9016563
47.669,68.0902179
47.680775,71.5836865
47.69255,75.3535402
47.704325,79.4296498
47.7161,83.8460219
47.727875,88.6415032
47.73965,93.8606282
47.751425,99.5546455
47.7632,105.782765
47.774975,112.613683
47.78675,120.12746
47.798525,128.417839
47.8103,137.595139
47.81815,144.269565
47.826,151.44025
47.8318875,157.173881
47.8397375,165.337597
47.845625,171.883506
47.853475,181.231188
47.8593625,188.74926
47.8672125,199.519669
47.8750625,211.23367
47.8829125,224.003899
47.8907625,237.960161
47.8986125,253.252637
47.9064625,270.055806
47.9143125,288.57326
47.9221625,309.043664
47.9260875,320.097181
47.931975,337.81108
47.9359,350.440653
47.939825,363.783453
47.94375,377.893456
47.9496375,400.627784
47.9535625,416.927011
47.95945,443.277135
47.963375,462.234273
47.9692625,492.993885
47.9731875,515.207181
47.979075,551.3949
47.983,577.636394
47.9888875,620.574437
47.994775,668.36405
48.0006625,721.742721
48.002625,740.924763
48.00655,781.588495
48.0085125,803.150105
48.0124375,848.951906
48.0144,873.288257
48.018325,925.096152
48.0202875,952.683985
48.0242125,1011.54784
48.026175,1042.9652
48.0301,1110.16116
48.034025,1183.75765
48.03795,1264.54656
48.0408937,1330.40004
48.0448187,1426.04332
48.0487437,1531.71798
48.0526687,1648.76073
48.0546312,1712.01766
48.0565937,1778.71169
48.0585563,1849.07209
48.0605187,1923.3448
48.0624813,2001.79345
48.0644437,2084.70042
48.0664062,2172.3679
48.06935,2313.50732
48.0713125,2414.53629
48.073275,2521.55196
48.0752375,2634.95537
48.0781813,2817.97066
48.0801437,2949.24567
48.0830875,3161.24581
48.08505,3313.36228
48.0879937,3558.98706
48.0909375,3827.08888
48.0938813,4119.3369
48.096825,4437.22916
48.0987875,4664.00099
48.10075,4902.92328
48.10389,5310.60356
48.10546,5525.99325
48.1086,5978.6375
48.11331,6704.33144
48.12273,8213.16319
48.12587,8678.12354
48.128225,8993.10194
48.129795,9181.5835
48.131365,9349.5162
48.132935,9494.19237
48.134505,9613.15541
48.136075,9704.29753
48.137645,9765.94913
48.14,9800.75484
48.142355,9765.24943
48.143925,9703.14107
48.145495,9611.55639
48.147065,9492.16987
48.148635,9347.09353
48.150205,9178.7874
48.151775,8989.9617
48.15413,8674.52554
48.15727,8209.06659
48.16826,6452.239
48.1714,5973.63083
48.17297,5743.78326
48.17611,5305.61597
48.17768,5097.90764
48.1812125,4659.12465
48.183175,4432.41196
48.1851375,4217.6335
48.1880813,3917.09793
48.1900438,3730.54857
48.1920063,3554.49375
48.19495,3308.98653
48.1978937,3084.22795
48.2008375,2878.50265
48.2037813,2690.15938
48.2057437,2573.48008
48.2086875,2410.69777
48.21065,2309.74066
48.2135938,2168.70596
48.2155563,2081.1062
48.2185,1958.53409
48.2204625,1882.27096
48.2234063,1775.37128
48.2253688,1708.73648
48.2283125,1615.15841
48.230275,1556.71625
48.2342,1448.43812
48.238125,1350.50215
48.24205,1261.70644
48.245975,1181.00672
48.2499,1107.49457
48.253825,1040.37839
48.25775,978.967187
48.261675,922.656514
48.2636375,896.24568
48.2675625,846.612847
48.2714875,800.8739
48.2754125,758.64399
48.277375,738.737094
48.2813,701.145655
48.285225,666.284744
48.2911125,618.569904
48.297,575.701643
48.3028875,537.058024
48.308775,502.111754
48.3146625,470.413782
48.32055,441.580044
48.324475,423.783951
48.3303625,399.013695
48.33625,376.325453
48.3421375,355.495207
48.3460625,342.543213
48.35195,324.388482
48.355875,313.066807
48.363725,292.114327
48.371575,273.177654
48.3755,264.386156
48.38335,248.019491
48.3912,233.114911
48.39905,219.504638
48.4069,207.044109
48.41475,195.608256
48.4226,185.088456
48.43045,175.390016
48.4383,166.4301
48.44615,158.135999
48.454,150.44369
48.46185,143.296623
48.473625,133.490334
48.481475,127.49927
48.489325,121.901049
