energy [eV],cross section [b]
1e-05,578.525889
1.09847504e-05,551.985537
1.19695008e-05,528.791874
1.30404498e-05,506.613203
1.38693471e-05,491.241194
1.46982444e-05,477.188591
1.59415904e-05,458.201975
1.69881562e-05,443.863725
1.8558005e-05,424.675423
1.96045708e-05,413.184574
2.07885508e-05,401.245945
2.2109945e-05,389.071061
2.34313391e-05,377.941169
2.47527333e-05,367.714852
2.62476266e-05,357.090033
2.87502152e-05,341.194632
3.12528038e-05,327.248933
3.41935124e-05,312.860594
3.7353281e-05,299.335576
4.05130497e-05,287.42546
4.31727325e-05,278.431217
4.71622568e-05,266.394585
4.98219396e-05,259.186489
5.28308389e-05,251.697505
5.61889547e-05,244.060321
5.95470706e-05,237.078649
6.29051864e-05,230.663781
6.6704223e-05,223.998937
7.30641591e-05,214.027908
7.73041165e-05,208.075659
8.1544074e-05,202.593904
8.957413e-05,193.299732
9.7604186e-05,185.177537
0.00010633714,177.410782
0.00011647589,169.513562
0.000126614639,162.585
0.000134261285,157.887233
0.000142795409,153.0965
0.000155596595,146.663586
0.00016413072,142.799729
0.000174905906,138.33117
0.000185681092,134.257455
0.000196456278,130.523666
0.000207231465,127.085013
0.000220836216,123.108204
0.000241243343,117.7862
0.00026165047,113.099649
0.000287416511,107.91109
0.000313182551,103.376798
0.000341203981,99.0409336
0.000362892118,96.0357506
0.000395424324,92.0004416
0.000430804183,88.1417231
0.000458187628,85.4672497
0.000485571073,83.0223304
0.000512954517,80.7759006
0.000543933409,78.4419308
0.000578507749,76.061773
0.00061308209,73.8859078
0.00064765643,71.8866889
0.000708597165,68.7259777
0.000774077514,65.7549125
0.000839557862,63.1385946
0.000922233357,60.2420244
0.000977350354,58.5186992
0.00106002585,56.1902956
0.00112961657,54.4319385
0.00123400266,52.0787987
0.00130359339,50.6696281
0.00138232138,49.2055437
0.00147018664,47.7124854
0.0015580519,46.347578
0.00164591716,45.0934793
0.00174531913,43.7905097
0.00191172716,41.841183
0.00202266584,40.6775228
0.00213360453,39.605843
0.00234371132,37.7888361
0.00255381811,36.200948
0.00278231626,34.682546
0.00295917017,33.630142
0.00313602408,32.6680664
0.00340130494,31.3681943
0.0036246007,30.3865594
0.00395954434,29.0728745
0.00418284011,28.2861771
0.00443545462,27.4688222
0.00471738787,26.6352908
0.00499932112,25.8733014
0.00528125438,25.1731724
0.00560020549,24.445759
0.00613415892,23.3574994
0.00666811236,22.4027201
0.00729554328,21.4176319
0.00796971295,20.4916461
0.00864388262,19.6762201
0.00921135375,19.0604267
0.0100625604,18.2363311
0.0109137671,17.5106291
0.0116302563,16.9625928
0.0123467454,16.4629788
0.0130632345,16.005052
0.0137797236,15.5833199
0.0146843628,15.0955831
0.0155890021,14.6509402
0.0164936413,14.2433972
0.0179693793,13.6458554
0.0196826757,13.0382692
0.0208248733,12.6755643
0.0219670709,12.3415267
0.0236335355,11.8983153
0.0259089065,11.3636606
0.0277356261,10.9829289
0.0295564708,10.6391089
0.0313773154,10.3256651
0.0341085823,9.9034307
0.0361685039,9.61713862
0.0384675025,9.32517657
0.0407665012,9.05826979
0.0430654998,8.81302776
0.045666357,8.55822466
0.0485690729,8.29837419
0.0529231468,7.94944256
0.0576583474,7.61577007
0.0631558015,7.2764804
0.0686532557,6.97879589
0.0751131312,6.67164995
0.0797405219,6.47496479
0.0866816081,6.21000744
0.0948378477,5.93662589
0.100680392,5.76156046
0.106522936,5.60109656
0.11236548,5.45331048
0.119742277,5.28238777
0.127119074,5.12655992
0.134495871,4.98372758
0.141872667,4.85217868
0.155843584,4.62912468
0.169814501,4.43417856
0.185008339,4.24774491
0.20264802,4.05815827
0.220287701,3.89180591
0.241015504,3.72015112
0.255863413,3.61022054
0.278135276,3.462119
0.294932716,3.36168855
0.313679687,3.25925847
0.341800144,3.12169572
0.360547115,3.03905723
0.384217043,2.94347227
0.407886971,2.85631967
0.4315569,2.77642698
0.470169654,2.65926525
0.514998135,2.54010334
0.559826616,2.43552754
0.612503072,2.32759915
0.669103517,2.22611181
0.725703961,2.13671075
0.773346446,2.06917548
0.820988931,2.00758987
0.892452659,1.92460093
0.946350605,1.86831103
1.00650401,1.81088811
1.06665742,1.75837571
1.12681082,1.71011002
1.19486238,1.65994553
1.27081208,1.60876807
1.38473662,1.54001289
1.50863337,1.47422548
1.65247451,1.40728747
1.79631566,1.34851841
1.96533861,1.28783938
2.0864145,1.24895854
2.26802835,1.19654964
2.48143674,1.14243351
2.63430718,1.1077561
2.78717762,1.07595454
2.94004806,1.04665123
3.1330623,1.01274291
3.32607654,0.981812712
3.51909077,0.953448213
3.71210501,0.927312976
4.0776547,0.88297409
4.4432044,0.844200074
4.86677814,0.80483404
5.4064,0.761532124
5.78986431,0.734510409
6.30618198,0.702101624
6.69467821,0.680238212
7.27742256,0.650807772
7.74124051,0.629821923
8.28038017,0.607710198
8.77089555,0.589422346
9.21278666,0.574242307
9.74339461,0.557435
10.6723818,0.531189774
11.2917066,0.515600431
11.9110313,0.501308889
13.0839706,0.47726044
14.2569099,0.456489882
15.5325206,0.436915916
17.0134739,0.417397665
18.4944271,0.400697005
19.720037,0.388653674
20.9355549,0.378072636
22.1510728,0.368682412
23.3665907,0.360348428
24.89641,0.351192979
26.15383,0.344665719
27.662734,0.337903189
29.4064723,0.331408416
31.0411183,0.326493918
33.06964,0.321848836
34.32706,0.319729946
36.967642,0.317076211
39.35674,0.316701831
41.87158,0.318361165
43.129,0.319989799
45.64384,0.324898403
48.2552204,0.332455301
50.04481,0.339198024
51.30223,0.344758074
52.55965,0.351044797
53.81707,0.35810762
55.07449,0.366003608
56.33191,0.374798486
57.58933,0.384567846
58.84675,0.395398618
60.2012533,0.408368227
61.4586733,0.421740961
63.24772,0.44325338
64.50514,0.460342641
65.76256,0.479274141
67.01998,0.500272648
67.963045,0.517534719
69.3776425,0.546167902
70.79224,0.5785455
72.2068375,0.615281467
73.621435,0.657126634
74.878855,0.699355152
75.507565,0.722499194
76.3742079,0.756892382
77.07934,0.787219818
77.70805,0.816216242
78.33676,0.847229545
78.96547,0.880446109
79.59418,0.916074643
80.537245,0.974560426
81.165955,1.0173098
82.10902,1.08786564
82.73773,1.13973257
83.052085,1.16727348
83.680795,1.22587192
84.309505,1.28961284
84.7810375,1.34116047
85.25257,1.39623979
85.88128,1.47574662
86.195635,1.51834842
86.824345,1.60987369
87.453055,1.71078585
87.76741,1.76516807
88.39612,1.88272501
88.8676525,1.97943803
89.339185,2.08440278
89.7321287,2.17887053
90.2036613,2.30158101
90.5180163,2.38963198
90.91096,2.50745554
91.2646094,2.6215797
91.6182587,2.74414658
91.9915553,2.88362955
92.3550283,3.03048521
92.7332366,3.19616749
93.111445,3.3765113
93.4847416,3.5706348
93.8776853,3.79447643
94.2706291,4.0409811
94.68322,4.32768493
95.0761638,4.63121184
95.2726356,4.79552405
95.5084019,5.00490631
95.7048737,5.19039635
95.94064,5.42736544
96.1764063,5.68145345
96.4121725,5.95435485
96.6086444,6.19751456
96.8051162,6.45629647
97.0055535,6.73782297
97.19806,7.02636575
97.3945319,7.34087884
97.6302981,7.74767537
97.82677,8.11368469
98.0625362,8.58897657
98.2590081,9.0184004
98.4947744,9.57851535
98.7305406,10.193555
98.9663069,10.8709589
99.2020731,11.6194708
99.4378394,12.4494234
99.6736056,13.3730974
99.7914888,13.8745605
99.9486663,14.5889239
100.066549,15.1620472
100.184432,15.7700792
100.302316,16.4159175
100.420199,17.1027662
100.538082,17.8341765
100.655965,18.6140922
100.773848,19.4469031
100.931026,20.6481462
101.048909,21.6244404
101.206086,23.0387982
101.323969,24.1935482
101.481147,25.8745997
101.630465,27.6407677
101.771925,29.48764
101.913385,31.5274471
101.976256,32.5030597
102.070562,34.0541974
102.133433,35.1511925
102.22774,36.8994112
102.290611,38.1387724
102.384918,40.1188925
102.447789,41.5263315
102.542095,43.7811983
102.604966,45.3884888
102.699272,47.9712917
102.762143,49.8180638
102.85645,52.795474
102.950756,56.048824
103.045063,59.6132049
103.13937,63.5294472
103.233676,67.8452803
103.327983,72.6167736
103.422289,77.9101383
103.516595,83.8039991
103.610902,90.3922775
103.642337,92.7615689
103.705208,97.7878828
103.768079,103.233135
103.830951,109.144907
103.878104,113.917371
103.925257,119.008649
103.988128,126.343243
104.050999,134.37392
104.11387,143.19082
104.161023,150.382015
104.223894,160.83828
104.286765,172.415111
104.349636,185.276531
104.381072,192.248433
104.412507,199.617266
104.443943,207.413321
104.475378,215.669792
104.506814,224.423106
104.553967,238.573334
104.585403,248.752899
104.616838,259.588218
104.648274,271.135772
104.695427,289.931257
104.726862,303.548373
104.774016,325.808108
104.805451,342.006901
104.852604,368.612281
104.88404,388.068094
104.899758,398.363867
104.931193,420.189046
104.946911,431.761313
104.978346,456.342703
104.994064,469.403396
105.025499,497.206514
105.041217,512.011301
105.072653,543.599161
105.08837,560.458026
105.119806,596.514973
105.135524,615.805614
105.166959,657.167489
105.182677,679.352271
105.214112,727.044529
105.245548,779.641699
105.269125,822.692638
105.292701,869.170549
105.324137,937.06821
105.339855,973.812913
105.355572,1012.58837
105.37129,1053.53108
105.387008,1096.7873
105.402726,1142.51359
105.418443,1190.87738
105.434161,1242.05744
105.449879,1296.2443
105.465597,1353.64056
105.481314,1414.46103
105.497032,1478.9327
105.51275,1547.29435
105.528468,1619.79588
105.552044,1736.881
105.567762,1820.88566
105.591339,1956.50011
105.614915,2104.45899
105.638492,2265.63024
105.662068,2440.76368
105.677786,2565.55356
105.691932,2683.4488
105.710793,2848.86323
105.723368,2964.26945
105.748516,3206.75563
105.786239,3595.37974
105.855397,4337.41969
105.880545,4591.11144
105.899406,4765.18473
105.911981,4870.63296
105.924555,4965.78948
105.937129,5049.16027
105.949703,5119.36065
105.962277,5175.16831
105.974852,5215.57381
105.987426,5239.8246
106.0,5247.4593
106.012574,5238.32927
106.025148,5212.60571
106.037723,5170.77159
106.050297,5113.59918
106.062871,5042.11506
106.075445,4957.55549
106.088019,4861.3157
106.100594,4754.89667
106.119455,4579.585
106.144603,4324.64378
106.213761,3581.17496
106.23891,3319.16334
106.264058,3069.64133
106.276632,2950.42589
106.301781,2724.07506
106.322214,2552.43254
106.345791,2368.11369
106.361508,2253.25179
106.377226,2144.60329
106.392944,2041.9489
106.41652,1898.6612
106.440097,1767.40298
106.463674,1647.2458
106.48725,1537.27035
106.510827,1436.59216
106.534403,1344.37697
106.55798,1259.84895
106.581557,1182.29391
106.605133,1111.05934
106.62871,1045.55229
106.644428,1004.79563
106.668004,947.667712
106.683722,912.058585
106.707299,862.052487
106.723016,830.82307
106.754452,772.964834
106.77017,746.151163
106.801605,696.338998
106.833041,651.123668
106.848759,630.074365
106.880194,590.799517
106.91163,554.94323
106.943065,522.136084
106.974501,492.054954
107.005936,464.416605
107.037372,438.972225
107.068807,415.502754
107.100242,393.814891
107.131678,373.737686
107.178831,346.315086
107.210267,329.638023
107.241702,314.110696
107.288855,292.757343
107.320291,279.685115
107.351726,267.452633
107.39888,250.529125
107.446033,235.135867
107.493186,221.096581
107.54034,208.259277
107.587493,196.49241
107.634646,185.681708
107.666082,178.956053
107.728953,166.542857
107.760388,160.809043
107.823259,150.18515
107.854694,145.259152
107.917565,136.09956
107.980436,127.770931
108.011872,123.887444
108.074743,116.628236
108.121896,111.590509
108.169049,106.869223
108.231921,101.022262
108.294792,95.6382052
108.357663,90.6697657
108.451969,83.9071397
108.51484,79.8072258
108.577711,75.9983078
108.640582,72.4536355
108.703453,69.1494484
108.766324,66.0645858
108.829195,63.1801534
108.892066,60.4792403
108.954937,57.9466746
109.017808,55.5688144
109.112115,52.265536
109.174986,50.2232291
109.237857,48.2975282
109.332163,45.6088556
109.426469,43.1371769
109.520776,40.859841
109.646518,38.0918765
109.709389,36.8115256
109.835131,34.4359732
109.898002,33.3329708
110.023744,31.2792411
110.086615,30.3223843
110.180921,28.9668617
110.275228,27.6996825
110.369535,26.5133575
110.479559,25.2225839
110.636736,23.535122
110.793914,22.0105102
110.951091,20.6285074
111.108269,19.3719165
111.265446,18.2260521
111.422624,17.1783131
111.579801,16.2178383
111.736979,15.3352263
111.815568,14.9205227
111.972745,14.1397168
112.129922,13.4182517
112.365689,12.4347219
112.522866,11.8375345
112.680044,11.2820811
112.91581,10.5189805
113.151576,9.83028078
113.387343,9.20664223
113.623109,8.64014393
113.858875,8.1240329
114.094641,7.65252359
114.330408,7.22063637
114.566174,6.8240666
114.80194,6.45907787
115.116295,6.01598495
115.273472,5.81122857
115.587828,5.43167082
115.745005,5.25559279
115.980771,5.00699871
116.216538,4.77551733
116.373715,4.62994084
116.68807,4.35794004
116.845247,4.23078088
117.159602,3.99249992
117.473957,3.7736685
117.788313,3.57223377
118.102668,3.38640629
118.259845,3.29884823
118.5742,3.13355707
118.888555,2.98030893
119.20291,2.83796632
119.517265,2.70552267
119.83162,2.58208472
120.145975,2.46685751
120.46033,2.35913174
120.774685,2.25827293
121.08904,2.16371212
121.560572,2.03257517
121.874927,1.95163164
122.189283,1.87540573
122.489764,1.80662378
122.804119,1.73862091
123.289525,1.6408889
123.918235,1.52604533
124.546945,1.4228108
124.8613,1.37506637
125.49001,1.28649632
125.804365,1.24537903
126.433075,1.16883416
126.74743,1.13317741
127.218963,1.08267228
127.690495,1.03546755
128.319205,0.977182207
128.63356,0.949868384
129.26227,0.89857007
129.89098,0.851323091
130.205335,0.829087529
130.834045,0.787158535
131.77711,0.730003969
132.40582,0.695304069
133.348885,0.647737242
133.977595,0.618702566
134.606305,0.591590083
135.235015,0.566234629
135.863725,0.542488349
136.492435,0.520218565
137.121145,0.499305953
137.907032,0.474910871
138.850098,0.447952673
139.32163,0.435337526
140.264695,0.41167671
140.736228,0.400574105
141.679293,0.379696223
142.150825,0.369874647
143.09389,0.351361482
144.508488,0.326140726
145.60873,0.308393949
146.86615,0.289869106
148.12357,0.273004665
149.38099,0.257608544
150.0097,0.250408561
151.26712,0.236912393
151.89583,0.230583062
153.102536,0.219148429
154.258529,0.209001352
155.03938,0.202555735
156.2968,0.192809773
158.18293,0.179509669
160.06906,0.167596552
161.95519,0.156884133
163.84132,0.147216307
165.72745,0.138461483
167.61358,0.130508119
169.49971,0.123261171
171.38584,0.11663926
172.64326,0.112536916
175.032358,0.105357259
176.352649,0.101702619
178.93036,0.0951360502
180.18778,0.0921804869
181.822426,0.088557668
183.457072,0.0851635413
185.21746,0.0817424411
187.10359,0.0783230328
189.021156,0.0750843076
191.598866,0.0710708445
194.844391,0.0665086167
197.484973,0.0631512212
200.467512,0.0596941633
203.45005,0.0565512509
205.807712,0.0542647091
208.778367,0.051606011
212.055518,0.0489300276
214.240285,0.0472805462
216.291452,0.0458211338
219.1678,0.0439081752
221.54118,0.0424374868
223.91456,0.041056059
226.287941,0.0397570519
229.431491,0.038152946
231.742,0.0370517726
234.88555,0.0356504748
239.42798,0.0338042285
242.225739,0.0327620128
245.229333,0.0317162101
249.660987,0.030299296
255.507238,0.0286354215
260.411176,0.0273989498
266.32105,0.0260788805
269.4646,0.0254452907
273.9573,0.0246153886
278.45,0.023868191
284.0112,0.023049078
288.565873,0.022459465
293.201673,0.0219300601
299.436825,0.0213250125
303.806066,0.0209715813
307.561064,0.0207133341
311.652694,0.0204795331
317.395023,0.0202357069
320.266188,0.0201514029
324.945314,0.0200695564
330.3692,0.020065037
335.005,0.0201436703
338.852714,0.0202716423
342.468638,0.0204483524
345.563034,0.0206468214
349.422338,0.0209614239
353.5482,0.0213895498
355.8661,0.0216764643
360.455542,0.0223563625
363.955571,0.0229885142
367.4556,0.023735241
370.283438,0.0244346636
373.505319,0.0253522794
376.7272,0.0264187946
380.018618,0.0276891412
382.939172,0.0289968819
385.859726,0.0305055355
388.733922,0.0322226207
391.56176,0.0341803281
393.492726,0.0356970424
394.992252,0.036990554
396.19756,0.0381118241
398.05188,0.039995079
399.025398,0.0410685011
400.879718,0.0432946451
402.68768,0.0457238816
404.542,0.0485232352
405.93274,0.0508581998
407.32348,0.0534238164
408.71422,0.0562507414
409.64138,0.0582980357
410.56854,0.0604895062
411.95928,0.0640773208
412.88644,0.0666925906
413.8136,0.0695075807
415.20434,0.0741504089
416.1315,0.0775610813
417.05866,0.0812566944
417.98582,0.0852696519
418.91298,0.0896371116
419.84014,0.0944018475
420.7673,0.0996133014
421.23088,0.102404132
422.15804,0.108396194
422.85341,0.113285288
423.896465,0.121338492
424.591835,0.127246881
424.93952,0.130380431
425.63489,0.137039425
426.33026,0.144270731
426.677945,0.148121697
427.373315,0.156341061
428.18458,0.166898374
428.64816,0.173455064
429.11174,0.180433713
429.57532,0.187871316
430.0389,0.19580902
430.50248,0.204292692
430.96606,0.213373587
431.42964,0.223109121
431.89322,0.233563791
432.3568,0.244810241
433.05217,0.263346955
433.51575,0.276956253
433.97933,0.291696351
434.44291,0.30769618
434.6747,0.316213868
435.13828,0.334387353
435.37007,0.344088804
435.83365,0.364848579
436.06544,0.375963914
436.52902,0.399825444
436.76081,0.412643572
437.22439,0.440257515
437.68797,0.470821125
438.15155,0.504770336
438.499235,0.532762932
438.731025,0.552768946
438.962815,0.573948674
439.3105,0.608126554
439.54229,0.632671764
439.77408,0.6587631
440.121765,0.701093377
440.353555,0.731663115
440.585345,0.764311616
440.817135,0.79923185
441.048925,0.836639714
441.280715,0.876777384
441.512505,0.919917245
441.86019,0.990939071
442.09198,1.04301854
442.32377,1.09936659
442.439665,1.12928871
442.671455,1.19296052
442.903245,1.26223428
443.135035,1.33778726
443.366825,1.42040225
443.598615,1.51098794
443.830405,1.61060402
444.062195,1.72049229
444.293985,1.84211557
444.525775,1.97720661
444.64167,2.05043277
444.757565,2.12783012
444.87346,2.20972163
445.047302,2.34177124
445.163197,2.43652974
445.279092,2.53719028
445.394988,2.64425333
445.510882,2.75827356
445.626778,2.879867
445.742672,3.00971935
445.858567,3.14859571
446.03241,3.37573011
446.148305,3.54114153
446.293174,3.76564296
446.438042,4.01226669
446.568424,4.2556145
446.713293,4.5529783
446.858162,4.88272071
446.930596,5.06122205
447.006652,5.25941526
447.082708,5.46950585
447.158765,5.69246457
447.231199,5.91774912
447.303633,6.15669817
447.376068,6.41043828
447.452124,6.69414828
447.524558,6.98224853
447.604236,7.32119701
447.689708,7.71300581
447.76504,8.08502131
447.851962,8.54872654
447.933088,9.01848164
448.014214,9.52804781
448.10693,10.1651139
448.188057,10.7764336
448.280773,11.5450577
448.373489,12.3988593
448.419847,12.8616792
448.466205,13.3508676
448.512563,13.8684604
448.558921,14.4166929
448.605279,14.998024
448.663226,15.7753873
448.709585,16.4415306
448.755942,17.1506652
448.802301,17.9065567
448.860248,18.9235932
448.906606,19.8007221
448.964553,20.9852947
449.010912,22.0108957
449.068859,23.4017038
449.126807,24.9279787
449.184754,26.6077896
449.242701,28.4623003
449.300649,30.516423
449.358596,32.7996371
449.381776,33.7847099
449.416544,35.3470223
449.439723,36.4490828
449.474491,38.2005728
449.50926,40.0802903
449.544028,42.1009352
449.578797,44.2768019
449.613565,46.6240219
449.648334,49.1608515
449.683103,51.9080114
449.717871,54.889091
449.752639,58.1310304
449.787408,61.6646984
449.810587,64.199861
449.833766,66.8921686
449.868535,71.2541465
449.891713,74.3993286
449.914892,77.7535529
449.949661,83.2179826
449.97284,87.1805503
449.996019,91.4266927
450.019198,95.9834377
450.042377,100.881016
450.065556,106.153312
450.088735,111.838387
450.111914,117.979083
450.135093,124.623736
450.158272,131.826997
450.181451,139.650798
450.20463,148.165479
450.227809,157.451107
450.250988,167.599022
450.268372,175.838101
450.285756,184.670192
450.297346,190.914588
450.31473,200.860026
450.32632,207.904432
450.343704,219.145023
450.355294,227.12171
450.372678,239.874183
450.390062,253.654938
450.407446,268.567362
450.42483,284.726392
450.442215,302.259695
450.459599,321.308881
450.476983,342.030679
450.494367,364.598008
450.511752,389.200802
450.529136,416.046424
450.540726,435.29971
450.552315,455.71977
450.569699,488.698599
450.581289,512.361199
450.592878,537.455535
450.610262,577.950603
450.621852,606.958975
450.633442,637.6582
450.645031,670.109588
450.662415,722.176468
450.677482,770.653205
450.696025,834.566119
