energy [eV],cross section [b]
1e-05,58546.0387
1.05993004e-05,56867.1078
1.1498251e-05,54599.3143
1.23972016e-05,52582.9067
1.31401663e-05,51075.0441
1.38831311e-05,49689.9123
1.46260959e-05,48411.7182
1.53690607e-05,47227.3746
1.62901291e-05,45873.1568
1.72111975e-05,44629.166
1.81322659e-05,43481.218
1.96242678e-05,41796.1769
2.13370684e-05,40084.1137
2.3049869e-05,38566.6398
2.50363981e-05,37005.6042
2.71597916e-05,35530.2374
2.9283185e-05,34218.4295
3.10381274e-05,33237.4736
3.27930698e-05,32336.3694
3.54254835e-05,31112.4492
3.73907734e-05,30284.2754
3.95664109e-05,29440.4324
4.17420484e-05,28663.4681
4.39176859e-05,27944.9922
4.63540954e-05,27201.2421
4.90512771e-05,26443.4234
5.17484587e-05,25745.6686
5.44456404e-05,25100.4425
5.91379817e-05,24085.0286
6.41536073e-05,23125.3632
6.9169233e-05,22272.1075
7.33145479e-05,21634.0666
7.95325201e-05,20772.2742
8.57504924e-05,20006.047
9.08895227e-05,19433.0891
9.60285531e-05,18906.7864
0.000103737099,18191.9646
0.000109492094,17708.2942
0.000115863053,17215.4897
0.000122234013,16761.7589
0.000128604972,16342.1994
0.000135739555,15907.8975
0.000143637762,15465.3993
0.000155485073,14866.04
0.000163383279,14503.2491
0.000173174846,14088.4507
0.000187862195,13528.2228
0.000202549545,13030.156
0.000220757748,12483.1799
0.00023289655,12154.7767
0.000251104753,11707.6307
0.000266153471,11373.3026
0.000288726547,10921.784
0.000303775265,10649.1987
0.000320627723,10367.0581
0.000339283922,10079.6187
0.00035794012,9814.99851
0.000398087209,9310.14183
0.00042729707,8988.54906
0.00044434414,8815.73497
0.00047843828,8498.31291
0.000521447517,8143.31344
0.000564456754,7829.82266
0.000610902718,7529.30572
0.000664222136,7224.09982
0.000717541554,6953.70695
0.000757348413,6770.81626
0.000801415851,6584.53147
0.000867517009,6332.31245
0.000938900093,6090.58487
0.000993531384,5923.55694
0.00104816268,5769.83962
0.00110279397,5627.76133
0.00116397337,5480.75917
0.00123170088,5331.0606
0.00133329215,5128.43359
0.00140101967,5005.86899
0.00148498283,4865.8209
0.00161092757,4676.83352
0.00173687232,4508.99048
0.00189300856,4324.88099
0.00199709938,4214.46347
0.00215323562,4064.28556
0.00228227912,3952.13503
0.00247584436,3800.88071
0.0026694096,3666.64343
0.00282938742,3566.43397
0.00298936524,3474.525
0.00314934306,3389.84549
0.00330932089,3311.50816
0.00350764862,3222.09485
0.00380514021,3101.62213
0.00422556725,2954.12008
0.00459437357,2842.23731
0.0049631799,2743.45964
0.00539092643,2642.2832
0.00569573752,2577.51526
0.00615295416,2489.91799
0.00668324016,2400.31455
0.00706112061,2343.02948
0.00743900106,2290.40631
0.00791384,2230.01761
0.00835806639,2178.54448
0.00924651918,2087.73344
0.0102715123,1999.11561
0.0114330458,1914.77779
0.0127338009,1835.8482
0.0141737774,1763.07667
0.01541743,1709.85157
0.0169407657,1654.24019
0.0184641015,1607.09932
0.0195706558,1577.21678
0.0206772101,1550.44843
0.02292102,1504.17283
0.0253,1464.60663
0.0268387948,1443.23555
0.0283775895,1424.66385
0.03042461,1403.71329
0.0328024399,1383.98826
0.0351802697,1368.47933
0.0393495724,1349.7252
0.0421923171,1342.1142
0.0445227397,1338.55988
0.049183585,1337.79164
0.0540687699,1344.90889
0.05884642,1358.74662
0.0637345569,1379.27934
0.0698184575,1413.20399
0.07544615,1452.46259
0.0810738425,1499.10477
0.0867759752,1553.84512
0.09045333,1593.15426
0.094205125,1636.51693
0.100487977,1716.54698
0.104239772,1768.77312
0.109212305,1843.06729
0.115965536,1952.98248
0.121968408,2058.83097
0.130972716,2229.5731
0.15048205,2615.12906
0.156484922,2722.58687
0.162487794,2815.47203
0.166989948,2871.87124
0.169991384,2901.73717
0.17299282,2924.60585
0.175994256,2939.87144
0.18049641,2947.45957
0.183497846,2941.82991
0.186499282,2927.46662
0.189500718,2904.39927
0.194002872,2853.95515
0.198505026,2785.74462
0.20300718,2701.79702
0.207509334,2604.65577
0.212011488,2497.16419
0.216513642,2382.25009
0.23302154,1940.0027
0.239024412,1784.74465
0.245027284,1637.53972
0.251030156,1500.02979
0.257033028,1373.02487
0.261535182,1284.79839
0.266787695,1189.36485
0.27053949,1125.98705
0.276167182,1038.04535
0.279918977,983.918814
0.283670773,933.180308
0.287422568,885.6422
0.291174363,841.116974
0.294926158,799.42029
0.30055385,741.789196
0.306461216,687.082459
0.309933338,657.449854
0.313685133,627.363433
0.317436928,599.150783
0.321188723,572.683017
0.326816415,535.992069
0.332444108,502.586513
0.3380718,472.133216
0.343699493,444.334435
0.349327185,418.924508
0.354954878,395.666633
0.36058257,374.349832
0.366210262,354.786145
0.371037847,339.273209
0.37558975,325.629164
0.379341545,315.048069
0.386845135,295.532959
0.39059693,286.532298
0.39810052,269.895684
0.401852315,262.206365
0.409355905,247.966067
0.416859495,235.102924
0.42061129,229.140395
0.42811488,218.069665
0.43561847,208.039146
0.439370265,203.38052
0.446873855,194.71718
0.45812924,183.201201
0.46563283,176.403809
0.476888215,167.373408
0.484391805,162.054022
0.49564719,155.015381
0.50315078,150.89518
0.514406165,145.494013
0.5225,142.14396
0.5292544,139.66708
0.54186,135.77198
0.5544656,132.766605
0.5607684,131.581377
0.573374,129.824544
0.5796768,129.248105
0.5922824,128.696303
0.5985852,128.72357
0.6111908,129.40106
0.6237964,130.948456
0.6300992,132.069306
0.6427048,135.063902
0.652159,138.029344
0.6584618,140.384793
0.667916,144.545563
0.6742188,147.779729
0.683673,153.40764
0.6899758,157.737494
0.6962786,162.586201
0.7025814,168.010649
0.7088842,174.076501
0.715456581,181.16694
0.7214898,188.447197
0.7277926,196.940206
0.7340954,206.454436
0.7403982,217.122729
0.746701,229.096618
0.7498524,235.625963
0.7561552,249.886277
0.762458,265.919004
0.7687608,283.943496
0.7750636,304.190336
0.778215,315.219412
0.7829421,332.972012
0.7860935,345.648369
0.7908206,365.972772
0.79523256,386.389045
0.79901424,404.999463
0.8065776,445.141188
0.81161984,473.78039
0.82800712,570.709285
0.8317888,591.810649
0.83557048,611.412552
0.84061272,634.226495
0.84313384,643.827906
0.84565496,652.012669
0.84817608,658.639586
0.8506972,663.589186
0.85447888,667.674605
0.857,668.095075
0.85952112,666.656785
0.86204224,663.385852
0.86456336,658.342931
0.86708448,651.620519
0.8696056,643.338883
0.87464784,622.686598
0.87842952,604.274366
0.88347176,576.949094
0.89985904,480.600226
0.9074224,438.438279
0.91246464,412.402959
0.91750688,388.276533
0.9231794,363.50521
0.9279065,344.766217
0.9310579,333.205818
0.9342093,322.363331
0.9389364,307.383882
0.9436635,293.853804
0.9483906,281.666575
0.9546934,267.323813
0.9578448,260.902282
0.9641476,249.419059
0.967299,244.305635
0.9704504,239.578976
0.9767532,231.198719
0.9799046,227.50509
0.9862074,221.020983
0.9893588,218.198403
0.9956616,213.320753
0.998813,211.240357
1.0051158,207.740468
1.0114186,205.057504
1.0177214,203.125362
1.0271756,201.517604
1.0334784,201.243654
1.0397812,201.569158
1.046084,202.469188
1.0523868,203.925477
1.0586896,205.925851
1.0649924,208.463795
1.0712952,211.538131
1.077598,215.152799
1.0839008,219.316741
1.0902036,224.043868
1.0965064,229.353124
1.1028092,235.268625
1.109112,241.819903
1.11739752,251.459395
1.12417056,260.267882
1.1309436,269.978701
1.13771664,280.664879
1.14448968,292.410825
1.15126272,305.313763
1.15803576,319.485455
1.1648088,335.05423
1.17158184,352.16739
1.17835488,370.994037
1.18512792,391.728405
1.19190096,414.593753
1.19528748,426.904354
1.20206052,453.459647
1.20883356,482.862719
1.21222008,498.744352
1.21899312,533.12175
1.22576616,571.36792
1.22915268,592.101495
1.23423246,625.416034
1.23761898,649.216348
1.24269876,687.516229
1.24608528,714.917522
1.25116506,759.072083
1.25624484,807.216169
1.26132462,859.74586
1.2664044,917.087309
1.27148418,979.69288
1.27656396,1048.03379
1.27995048,1097.01686
1.283337,1148.90095
1.28672352,1203.81965
1.29011004,1261.89617
1.29349656,1323.23772
1.29688308,1387.92849
1.30297882,1512.95309
1.30704264,1602.39949
1.31110646,1696.53166
1.31517029,1794.99359
1.31923411,1897.21174
1.33278019,2251.98334
1.33819862,2390.69777
1.34361706,2519.86904
1.34768088,2606.70467
1.3503901,2658.27006
1.35309931,2703.83131
1.35580853,2742.62867
1.35851774,2773.97735
1.36122696,2797.29519
1.36393618,2812.12769
1.36664539,2818.16874
1.36908369,2815.96711
1.37341843,2794.28726
1.37612765,2769.54217
1.37883686,2736.6752
1.38154608,2696.25138
1.3842553,2648.94557
1.38696451,2595.5151
1.38967373,2536.77122
1.39373755,2440.52487
1.39780138,2337.00975
1.41405667,1898.69823
1.4194751,1757.589
1.42489354,1623.51677
1.43031197,1497.8035
1.43437579,1409.41275
1.43911692,1312.8078
1.4441967,1217.00668
1.44758322,1157.43862
1.45096974,1101.17885
1.45435626,1048.09481
1.45774278,998.042961
1.4611293,950.873628
1.46451582,906.434788
1.46790234,864.574963
1.47128886,825.145381
1.47467538,788.00155
1.4780619,753.004362
1.48144842,720.02082
1.4865282,674.046357
1.48991472,645.558594
1.49330124,618.671658
1.49838102,581.119783
1.5034608,546.62031
1.50854058,514.884276
1.51362036,485.651233
1.51870014,458.686846
1.52377992,433.780507
1.52716644,418.225406
1.53393948,389.404549
1.537326,376.046743
1.54409904,351.229508
1.54748556,339.69571
1.5542586,318.210386
1.56103164,298.637193
1.56441816,289.500837
1.5711912,272.410045
1.57796424,256.754586
1.58135076,249.41739
1.5881238,235.63898
1.59489684,222.953854
1.59828336,216.986718
1.6050564,205.741379
1.61182944,195.340483
1.61860248,185.703985
1.62537552,176.760835
1.63214856,168.447834
1.6389216,160.708641
1.64569464,153.492926
1.65246768,146.755634
1.65924072,140.456351
1.66601376,134.558757
1.6727868,129.030147
1.67955984,123.841017
1.68633288,118.964701
1.69649244,112.184567
1.70326548,107.989518
1.71003852,104.032101
1.72019808,98.5041703
1.73374416,91.816417
1.7405172,88.735186
1.75406328,83.0401909
1.76083632,80.40609
1.7743824,75.5197903
1.78115544,73.2517112
1.79470152,69.0304472
1.80147456,67.0647267
1.81502064,63.3951443
1.82179368,61.6812875
1.83533976,58.4730425
1.8421128,56.9706114
1.85565888,54.151028
1.86243192,52.8273482
1.88275104,49.1659121
1.89629712,46.9574947
1.91661624,43.949546
1.93016232,42.1253552
1.95048144,39.6282913
1.96402752,38.1067423
1.98434664,36.014906
1.99789272,34.7350419
2.01821184,32.9688776
2.03175792,31.8844561
2.045304,30.8677614
2.05885008,29.9136805
2.07952101,28.5681007
2.09306709,27.7525325
2.1130344,26.6371251
2.12658048,25.9346505
2.15367264,24.648461
2.16721872,24.0597015
2.19431088,22.979796
2.22140304,22.0173634
2.24172216,21.3646514
2.25865476,20.862061
2.28913344,20.0439178
2.3162256,19.4016406
2.3500908,18.6995961
2.383956,18.0984357
2.411478,17.677366
2.439,17.3121173
2.4735033,16.9276521
2.50229487,16.665601
2.53108645,16.4543238
2.57291431,16.2342162
2.60306539,16.1377058
2.63185696,16.0936751
2.66064854,16.0969668
2.68944011,16.1485404
2.71535253,16.2375998
2.7441441,16.3861527
2.77293568,16.5900916
2.80748557,16.9140753
2.84203546,17.3339376
2.86506872,17.6734431
2.89961861,18.284398
2.92265187,18.7685728
2.94568513,19.323243
2.96871839,19.9580053
2.99175165,20.6845983
3.00326828,21.0867221
3.02630154,21.9792079
3.0493348,23.0064816
3.07236806,24.1937337
3.08388469,24.8570304
3.09540132,25.5729734
3.10691795,26.3470098
3.11843458,27.1853531
3.12995121,28.0951169
3.14146784,29.0844748
3.15298447,30.1628553
3.1645011,31.3411793
3.17601773,32.6321515
3.18753436,34.0506195
3.19905099,35.6140199
3.20697867,36.7850071
3.21632593,38.276921
3.22784256,40.3013468
3.23935919,42.561566
3.25087582,45.0960432
3.26239245,47.9514245
3.26815077,49.5167815
3.27390908,51.1846745
3.2796674,52.9642945
3.28542571,54.8658738
3.29118403,56.9008262
3.29694234,59.0819107
3.30270066,61.423419
3.30845897,63.9413946
3.31421729,66.6538868
3.3199756,69.581246
3.32573392,72.746469
3.33149223,76.1756015
3.33725055,79.8982087
3.34012971,81.8799004
3.34588802,86.1072309
3.35164634,90.7211945
3.35740465,95.7686636
3.36316297,101.303352
3.36604212,104.272327
3.37180044,110.656283
3.37755875,117.699352
3.38043791,121.494912
3.38619623,129.694843
3.39195454,138.79818
3.3948337,143.726796
3.40059201,154.424045
3.40347117,160.230788
3.40778991,169.572211
3.41066907,176.253865
3.4149878,187.01869
3.41930654,198.753722
3.42362527,211.554593
3.42794401,225.523054
3.43226275,240.765423
3.43658148,257.389939
3.43946064,269.293415
3.4423398,281.888095
3.44665853,302.133913
3.44953769,316.56489
3.45241685,331.759432
3.4570235,357.66515
3.45932683,371.341804
3.46393348,400.062117
3.47084346,446.05029
3.48351175,533.744679
3.4881184,563.695362
3.49157339,584.237302
3.49387672,596.677047
3.49618004,607.899732
3.49848337,617.72961
3.5007867,626.00387
3.50309002,632.578893
3.50539335,637.33619
3.5089635,640.922509
3.51115166,640.783529
3.51345499,638.715816
3.51575831,634.716667
3.51806164,628.861177
3.52036497,621.256662
3.52266829,612.037905
3.52497162,601.361472
3.52727494,589.399515
3.53072993,569.444231
3.53533659,540.044607
3.54915654,444.975915
3.55606652,399.414096
3.56067317,371.053228
3.5629765,357.575109
3.56758315,332.098432
3.57046231,317.190768
3.57334146,303.058949
3.5776602,283.281542
3.58053936,271.01031
3.58341852,259.437886
3.58773725,243.322108
3.59205599,228.600689
3.59637472,215.16324
3.60069346,202.901784
3.60357262,195.329687
3.60789135,184.802468
3.61077051,178.298596
3.61508925,169.250742
3.61796841,163.65646
3.62228714,155.867047
3.6251663,151.046209
3.63092461,142.215366
3.63668293,134.356786
3.63956209,130.75538
3.6453204,124.143549
3.65107872,118.243506
3.65395787,115.534761
3.65971619,110.554614
3.6654745,106.10441
3.66835366,104.060119
3.67411198,100.30152
3.67987029,96.9456027
3.68850776,92.5815195
3.69426608,90.0700506
3.70290355,86.8295614
3.70866187,84.9859276
3.71729934,82.6457398
3.72593681,80.7664456
3.73457428,79.3021385
3.7403326,78.5378948
3.74609091,77.9324405
3.75184923,77.4780454
3.76336586,76.9974022
3.76912417,76.9612788
3.7806408,77.2798218
3.78639912,77.6300203
3.79791575,78.7070159
3.80367406,79.4339587
3.81519069,81.270549
3.8229745,82.8084521
3.82924512,84.227914
3.83571918,85.8689515
3.84219324,87.6958472
3.8486673,89.7175967
3.85837839,93.1389634
3.86485245,95.6973423
3.87456354,99.9882646
3.8810376,103.176583
3.89074869,108.501758
3.89722275,112.448512
3.90693384,119.033346
3.9134079,123.913851
3.92311899,132.065704
3.92959305,138.119283
3.93283008,141.350728
3.93930414,148.258824
3.9457782,155.814182
3.94901523,159.856792
3.95548929,168.521763
3.95872632,173.166188
3.96520038,183.14002
3.96843741,188.496499
3.97371527,197.807771
3.9781485,206.227743
3.98462256,219.609381
3.98785959,226.828134
3.99433365,242.435999
3.99757068,250.876023
4.00404474,269.169849
4.00890028,284.252284
4.01213731,295.02136
4.01537434,306.406519
4.02022989,324.730779
4.02346692,337.843565
4.02670395,351.730024
4.03155949,374.12446
4.03479652,390.178419
4.03803356,407.200804
4.0428891,434.68743
4.04612613,454.409631
4.04936316,475.329432
4.05260019,497.516439
4.05583722,521.040641
4.05907425,545.971149
4.06231128,572.374534
4.06554831,600.312704
4.07040385,645.214175
4.0752594,693.823681
4.08043865,749.811095
4.08432308,794.546417
4.08950233,857.59978
4.09597639,940.996025
4.11021932,1130.77307
4.11539857,1195.5587
4.11928301,1239.96265
4.12187263,1266.83148
4.12446226,1291.0489
4.12705188,1312.23203
4.1296415,1330.02613
4.13223113,1344.11824
4.13482075,1354.25014
4.13741038,1360.22961
4.13974104,1361.96215
4.14258962,1359.34212
4.14517925,1352.48329
4.14776887,1341.48805
4.1503585,1326.55598
4.15294812,1307.95199
4.15553774,1285.99481
4.15812737,1261.04399
4.16071699,1233.48616
4.16460143,1188.13753
4.16978068,1122.26438
4.18402361,930.463805
4.18920286,862.948284
4.1943821,798.684305
4.19956135,738.332199
4.20344579,695.845229
4.20797763,649.361429
4.21283318,603.214866
4.2160702,574.496564
4.21930723,547.355582
4.22254426,521.73079
4.22739981,485.989478
4.23063684,463.856486
4.23387387,442.995715
4.23872941,413.935127
4.24196644,395.947921
4.24520347,378.992556
4.25005902,355.356762
4.25491456,333.700673
4.25977011,313.839902
4.26462565,295.606063
4.2694812,278.846208
4.27433674,263.421957
4.27919229,249.208446
4.28566635,231.947757
4.28890338,223.975129
4.29537744,209.212923
4.29861447,202.37577
4.30508853,189.682402
4.30832556,183.787723
4.31479962,172.815808
4.32127368,162.83163
4.32451071,158.175391
4.33098477,149.473315
4.33745883,141.512456
4.34069586,137.785328
4.34716992,130.793735
4.35364398,124.366701
4.35688101,121.347066
4.36335507,115.663626
4.36982913,110.416421
4.37630319,105.564224
4.38601428,98.9477036
4.39248834,94.9317957
4.3989624,91.1995929
4.40543646,87.7266636
4.41191052,84.4911358
4.41838458,81.4733901
4.42485864,78.6557958
4.4313327,76.0224798
4.43780676,73.5591268
4.44428082,71.2528046
4.45722894,67.0655423
4.47017706,63.3795534
4.48312518,60.1278272
4.4960733,57.2547293
4.50902142,54.7138541
4.52196954,52.4663382
4.53491766,50.4795275
4.54786578,48.7259177
4.55433984,47.9291645
4.56728796,46.4830115
4.58023608,45.2186821
4.5931842,44.1210509
4.60613232,43.177447
4.61908044,42.3773362
4.63202856,41.712068
4.64497668,41.1746748
4.6579248,40.7597156
4.67606953,40.3767825
4.68820859,40.2469703
4.70130203,40.2193283
4.71534987,40.319703
4.73642161,40.7275342
4.75046944,41.1772512
4.76451727,41.7769158
4.7785651,42.5356219
4.79261293,43.4650044
4.80666076,44.5796176
4.82070859,45.8974247
4.83475642,47.4404249
4.84880425,49.2354564
4.86285208,51.3152247
4.87689991,53.719624
4.88392383,55.0584032
4.8944597,57.2569838
4.90499557,59.708587
4.91201949,61.4991075
4.9190434,63.4269631
4.92606732,65.5042067
4.93309123,67.7443082
4.94011515,70.1623488
4.94713906,72.7752454
4.95416298,75.6020104
4.96118689,78.6640552
4.96821081,81.9855423
4.97523472,85.593796
4.98225863,89.5197834
4.98928255,93.7986748
4.99630646,98.4705007
5.00333038,103.58092
5.01035429,109.182119
5.01737821,115.333861
5.02440212,122.10471
5.02791408,125.746476
5.034938,133.597337
5.04196191,142.287067
5.04547387,146.980873
5.05249778,157.144116
5.0595217,168.458778
5.06303366,174.596685
5.06830159,184.46558
5.07181355,191.521033
5.07708149,202.883236
5.08059344,211.018194
5.08586138,224.136132
5.08937334,233.53874
5.09464127,248.714186
5.09990921,265.28399
5.10517715,283.37514
5.11044508,303.116972
5.11395704,317.25813
5.117469,332.224909
5.12273693,356.292333
5.12624889,373.452936
5.12976085,391.526024
5.13537998,422.348926
5.13818955,438.625895
5.14380868,472.815531
5.15223738,527.583925
5.16909477,641.271912
5.17471391,676.246389
5.17892825,699.916591
5.18173782,714.068921
5.18454739,726.667996
5.18735695,737.510959
5.19016652,746.414064
5.19297608,753.220018
5.19578565,757.804679
5.20014048,760.334958
5.20280957,759.093186
5.20561913,755.515277
5.20983348,745.941109
5.21264305,736.925806
5.21545261,725.986915
5.21826218,713.310832
5.22107175,699.102584
5.22528609,675.391561
5.23090523,640.447974
5.25057219,508.975806
5.25619132,473.286377
5.25900089,456.170822
5.26462002,423.592732
5.26883437,400.690277
5.27199513,384.396623
5.27550709,367.180267
5.27901904,350.886144
5.282531,335.492732
5.28604296,320.971778
5.28955492,307.290324
5.29306687,294.412338
5.29833481,276.518937
5.30184677,265.482801
5.30535873,255.116174
5.31062666,240.739985
5.3158946,227.665249
5.32116253,215.778779
5.32643047,204.97608
5.33169841,195.161634
5.33696634,186.248793
5.3404783,180.76887
5.34750222,170.823413
5.35101417,166.320048
5.35803809,158.167768
5.36155005,154.488951
5.36857396,147.85985
5.37208592,144.8863
5.37910983,139.570251
5.38262179,137.210031
5.38964571,133.046965
5.39315766,131.231082
5.40018158,128.103236
5.40369354,126.782289
5.41,124.80242
5.41325531,123.973283
5.41961669,122.724731
5.42915875,121.763619
5.43552013,121.731554
5.43870081,121.900658
5.44506219,122.617359
5.44824288,123.169499
5.45460425,124.676045
5.45778494,125.637732
5.46414631,127.999928
5.467327,129.410859
5.47368838,132.72287
5.47686906,134.638058
5.48004975,136.736593
5.48641113,141.519883
5.48959181,144.224758
5.49595319,150.317869
5.49913388,153.731702
5.50549525,161.365568
5.50867594,165.617493
5.51344697,172.588311
5.518218,180.328245
5.52298903,188.907261
5.52776006,198.400509
5.53253109,208.887335
5.53730213,220.449554
5.54048281,228.795511
