energy [eV],cross section [b]
1e-05,1171.87432
1.05811818e-05,1139.23672
1.14529545e-05,1095.02069
1.23247273e-05,1055.5832
1.3041018e-05,1026.1844
1.37573087e-05,999.112616
1.48317448e-05,962.24376
1.56312946e-05,937.31115
1.65141034e-05,911.913808
1.8279721e-05,866.755445
1.92651443e-05,844.297037
2.0353182e-05,821.420017
2.25292576e-05,780.742974
2.44142533e-05,749.997601
2.64257186e-05,720.88879
2.84371839e-05,694.925839
3.00899013e-05,675.57168
3.25689775e-05,649.351506
3.50480536e-05,625.96501
3.70849827e-05,608.531478
3.91219119e-05,592.477869
4.21773056e-05,570.614588
4.57062298e-05,548.144075
4.82166894e-05,533.683562
5.32376086e-05,507.894425
5.78787181e-05,487.10596
6.40668641e-05,462.984446
6.94272612e-05,444.752426
7.51473021e-05,427.490894
8.08673429e-05,412.094862
8.79171373e-05,395.227623
9.26170002e-05,385.069292
9.96667946e-05,371.201113
0.000105459247,360.863042
0.000114147927,346.857479
0.000122836606,334.365538
0.000129975646,325.053389
0.000137114686,316.478332
0.000144253727,308.547992
0.000151392767,301.18543
0.000160191439,292.797397
0.000173389447,281.433663
0.000192009518,267.440219
0.000208275703,256.784866
0.000224541889,247.309429
0.000243329037,237.570833
0.000263376667,228.350632
0.000283424297,220.126894
0.000299896402,213.996493
0.000324604559,205.691306
0.000359463426,195.464206
0.000379764846,190.168247
0.000410216975,182.974155
0.000430518395,178.608242
0.000455539341,173.634244
0.000480560288,169.053963
0.000505581234,164.818058
0.000546020997,158.597802
0.000592277448,152.279357
0.000653952715,144.921511
0.000710962529,138.990425
0.000767972343,133.732716
0.000829399899,128.685866
0.000876241927,125.199514
0.000923083954,121.982036
0.000993346995,117.589547
0.00105107852,114.315171
0.0011376758,109.879217
0.00125984934,104.41677
0.00136657813,100.257409
0.00150888318,95.4138525
0.0016404235,91.509538
0.00177196382,88.0485165
0.00191369732,84.7263223
0.00207581717,81.3517192
0.00223793703,78.3508408
0.00242518252,75.2666635
0.00255838805,73.2819225
0.00275819635,70.5789595
0.00298897131,67.8009774
0.00315314349,66.0132864
0.00348148787,62.8251553
0.00368382561,61.0765319
0.00388616336,59.4663472
0.00429083885,56.594792
0.00466490247,54.2801302
0.00516365397,51.5944599
0.00559569066,49.5646066
0.00605671388,47.6428795
0.0065177371,45.9289102
0.00708593564,44.0512456
0.00746473467,42.920467
0.00803293321,41.3767913
0.00849979268,40.2261087
0.00920008188,38.6672972
0.0101880669,36.7479038
0.0107634584,35.7540435
0.01133885,34.8368769
0.0125565145,33.1083183
0.0136202462,31.7922414
0.015038555,30.2598378
0.0163495752,29.0247365
0.0176605954,27.9299918
0.0190732077,26.8792835
0.0206890044,25.8121408
0.0217662021,25.1678088
0.0234575499,24.2472733
0.0253,23.3516546
0.0267269337,22.7227314
0.0281538674,22.1423319
0.0297901189,21.5289119
0.0314263705,20.964139
0.0330626221,20.4419148
0.0346988736,19.9571602
0.0367155091,19.4049908
0.0387321445,18.8966332
0.04074878,18.4265951
0.0440081395,17.7365507
0.0477363117,17.0358705
0.0527072081,16.2203031
0.0573020787,15.5632244
0.0618969494,14.9810416
0.0668478807,14.4225066
0.0706232492,14.036865
0.0743986177,13.6811205
0.0800616704,13.1957278
0.0847147091,12.8341166
0.0893677478,12.5013188
0.0986738252,11.9083152
0.104408568,11.5833747
0.110143312,11.2843803
0.121612798,10.7517601
0.132301671,10.3197792
0.142851343,9.94247482
0.154239963,9.58003375
0.162950975,9.32924082
0.176017493,8.98915084
0.190096548,8.6634349
0.206200675,8.333443
0.21693676,8.13465906
0.23428881,7.84352419
0.247520742,7.643019
0.26736864,7.37158019
0.285572429,7.1488649
0.300488,6.98231231
0.334496413,6.64711587
0.367844276,6.36718935
0.408042594,6.07961686
0.43947789,5.88508211
0.479224,5.66983421
0.525315848,5.45520296
0.568592,5.28147798
0.608014728,5.14261452
0.65796,4.98894343
0.702644,4.86937971
0.747328,4.76431474
0.797949006,4.66051462
0.859038,4.55396666
0.903722,4.48746497
0.954757193,4.42209062
0.999441193,4.37335207
1.060116,4.31888068
1.149484,4.26131406
1.21207578,4.23607044
1.283536,4.22183291
1.372904,4.22567032
1.462272,4.25403403
1.55164,4.30833456
1.641008,4.39102261
1.708034,4.47382788
1.77506,4.57674336
1.8411298,4.70049688
1.909112,4.85443484
1.976138,5.03703809
2.043164,5.25589495
2.11019,5.51825302
2.154874,5.72187387
2.177216,5.83354984
2.2219,6.07914374
2.244242,6.21422196
2.29020513,6.52143876
2.33361,6.85302545
2.355952,7.04173218
2.389465,7.35090411
2.411807,7.57634719
2.434149,7.81900375
2.467662,8.2190756
2.490004,8.51276709
2.523517,8.99963577
2.545859,9.35912978
2.579372,9.95892428
2.601714,10.404837
2.612885,10.6432939
2.635227,11.1544645
2.657569,11.7162748
2.66874,12.0182636
2.691082,12.669228
2.702253,13.0203842
2.7178924,13.5437696
2.7312976,14.0244649
2.7447028,14.5375695
2.758108,15.0860508
2.7759816,15.878178
2.79078718,16.5928345
2.802792,17.215507
2.8117288,17.7064179
2.8296024,18.7653954
2.847476,19.9396552
2.8653496,21.2465356
2.8832232,22.7067635
2.8966284,23.9173848
2.9055652,24.7861721
2.914502,25.7091106
2.9234388,26.6907913
2.9323756,27.7363018
2.9457808,29.4367785
2.9547176,30.6679986
2.9636544,31.9858089
2.9725912,33.3985091
2.981528,34.9154146
2.9904648,36.5470085
2.9994016,38.305121
3.0083384,40.203141
3.0172752,42.2562681
3.026212,44.4818122
3.0351488,46.8995531
3.0440856,49.5321718
3.0530224,52.4057728
3.0619592,55.5505175
3.0664276,57.2352905
3.0753644,60.8541233
3.0843012,64.8427703
3.0887696,66.9915964
3.0977064,71.6347593
3.1066432,76.7950146
3.1111116,79.5931276
3.1178142,84.0940225
3.1222826,87.3154377
3.1289852,92.5140895
3.1334536,96.2473797
3.1401562,102.293434
3.1446246,106.651129
3.1513272,113.735715
3.1580298,121.557581
3.1647324,130.220434
3.171435,139.84637
3.1781376,150.579786
3.1848402,162.592269
3.1870744,166.914982
3.1915428,176.088703
3.193777,180.958421
3.1982454,191.314946
3.2004796,196.824334
3.204948,208.567515
3.2071822,214.828696
3.2116506,228.205815
3.216119,242.835825
3.2205874,258.871677
3.2250558,276.488682
3.2295242,295.888137
3.2339926,317.3015
3.238461,340.995197
3.2429294,367.27607
3.2451636,381.49512
3.2473978,396.49745
3.249632,412.33557
3.2518662,429.065738
3.2541004,446.748164
3.2574517,475.199291
3.2596859,495.55355
3.2619201,517.104717
3.2641543,539.932967
3.2675056,576.756727
3.2697398,603.158868
3.2730911,645.781159
3.2764424,692.328725
3.2797937,743.152904
3.283145,798.607552
3.2864963,859.033395
3.2898476,924.734955
3.2920818,971.587371
3.294316,1020.93549
3.29789072,1105.10511
3.30235912,1219.05463
3.30504016,1291.66781
3.3077212,1366.93825
3.31844536,1677.86009
3.32202008,1775.31106
3.32470112,1842.12709
3.32648848,1882.57194
3.32827584,1919.04002
3.3300632,1950.95611
3.33185056,1977.78714
3.33363792,1999.06268
3.33542528,2014.39432
3.33721264,2023.49274
3.33891063,2026.20009
3.34168104,2018.1041
3.3434684,2004.78878
3.34525576,1985.39708
3.34704312,1960.27886
3.34883048,1929.87392
3.35061784,1894.69338
3.3524052,1855.29946
3.35508624,1789.60878
3.35866096,1692.85134
3.37117248,1328.6782
3.3747472,1229.65559
3.37653456,1182.12393
3.38010928,1091.55218
3.38189664,1048.63546
3.383684,1007.34034
3.3859182,958.011293
3.3881524,911.206986
3.3903866,866.879118
3.3937379,804.873025
3.3959721,766.397114
3.3982063,730.094923
3.4015576,679.487247
3.4049089,633.173144
3.4082602,590.795725
3.4116115,552.01187
3.4138457,527.991747
3.417197,494.489593
3.4194312,473.717162
3.4227825,444.706056
3.4250167,426.691249
3.428368,401.490737
3.4306022,385.815159
3.4339535,363.847748
3.4361877,350.157948
3.439539,330.937402
3.4417732,318.936513
3.4462416,296.70826
3.45071,276.610691
3.4551784,258.395582
3.4596468,241.847349
3.4641152,226.778503
3.4685836,213.02573
3.473052,200.446502
3.4775204,188.916186
3.4797546,183.509697
3.484223,173.352191
3.4886914,163.994905
3.4931598,155.358556
3.495394,151.288524
3.4998624,143.604847
3.5043308,136.481796
3.5110334,126.736585
3.517736,117.985839
3.5244386,110.10162
3.5311412,102.975496
3.5378438,96.5151546
3.5445464,90.6416649
3.5490148,87.0181672
3.5557174,81.976857
3.56242,77.3617315
3.5691226,73.1268035
3.573591,70.4947535
3.5802936,66.8070651
3.584762,64.5083799
3.5936988,60.256595
3.6026356,56.4166581
3.607104,54.6349233
3.6160408,51.3197815
3.6249776,48.3030366
3.6339144,45.550336
3.6428512,43.0320916
3.651788,40.7227145
3.6607248,38.5999887
3.6696616,36.6445545
3.6785984,34.8394823
3.6875352,33.1699178
3.696472,31.622786
3.7054088,30.1865426
3.7143456,28.8509659
3.7232824,27.6069792
3.7322192,26.4465019
3.741156,25.3623212
3.7545612,23.8651738
3.763498,22.9449349
3.7724348,22.0811457
3.78584,20.881687
3.7992452,19.7860634
3.8126504,18.7828362
3.830524,17.5719953
3.8394608,17.015238
3.8573344,15.988157
3.8662712,15.5140187
3.8841448,14.6361583
3.8930816,14.22948
3.9109552,13.4740876
3.919892,13.1230554
3.9332972,12.6269105
3.9467024,12.1644688
3.9601076,11.7329089
3.975747,11.2650998
3.998089,10.6567943
4.00926,10.3766279
4.031602,9.85935917
4.053944,9.39386776
4.076286,8.97429812
4.098628,8.59568169
4.109799,8.42038499
4.132141,8.09547775
4.1595,7.74027667
4.18141932,7.48638812
4.20333864,7.25742428
4.22571416,7.04750594
4.25187998,6.8304125
4.27615064,6.65470257
4.30042131,6.50241378
4.31983784,6.39685496
4.34896265,6.26502637
4.36837918,6.19470371
4.39750398,6.11589669
4.41692051,6.08167323
4.44604532,6.05938608
4.46546185,6.06527389
4.48487838,6.08926636
4.50429492,6.13307913
4.52371145,6.1988963
4.54312798,6.28948392
4.56254452,6.40834119
4.58196105,6.55990362
4.60137759,6.74981892
4.61108585,6.86134579
4.63050239,7.12300008
4.64506479,7.35834064
4.65477306,7.53690752
4.66448132,7.73511045
4.67904372,8.07439289
4.69360612,8.47259085
4.70816852,8.94160705
4.71787679,9.30094777
4.72273092,9.49659717
4.73243919,9.92376665
4.73972039,10.2790872
4.74700159,10.6682412
4.75185573,10.9484546
4.76156399,11.5649203
4.76884519,12.0825601
4.77612639,12.6545211
4.78340759,13.2881718
4.79068879,13.9921509
4.79796999,14.776631
4.80525119,15.6536451
4.81253239,16.6374943
4.81981359,17.7452579
4.82466773,18.5625672
4.82952186,19.4510515
4.83194893,19.9244547
4.83680306,20.9351128
4.83923013,21.4748065
4.84408426,22.6296586
4.84651133,23.2477948
4.85136546,24.5737299
4.8562196,26.0316074
4.86107373,27.6382231
4.8635008,28.5032347
4.86835493,30.3700685
4.87320906,32.4395439
4.8780632,34.7391477
4.88291733,37.3005222
4.8853444,38.6905366
4.88777146,40.1600298
4.89019853,41.7143777
4.8926256,43.3593199
4.89505266,45.1009724
4.89869326,47.9091146
4.90112033,49.9218473
4.9035474,52.055754
4.90597446,54.3186764
4.90840153,56.7187936
4.9108286,59.264573
4.91325566,61.964699
4.91568273,64.8279719
4.91932333,69.4479395
4.9217504,72.7569899
4.925391,78.08364
4.9290316,83.8651991
4.93340032,91.4224013
4.93728363,98.7062903
4.94116693,106.495741
4.94699189,118.977674
4.95767099,142.803242
4.96155429,150.945609
4.96446677,156.530855
4.96640843,159.913127
4.96835008,162.964165
4.97029173,165.635902
4.97223339,167.883775
4.97417504,169.668432
4.97611669,170.957356
4.97805835,171.726286
4.98029125,171.948863
4.98194165,171.654641
4.98388331,170.814694
4.98582496,169.455993
4.98776661,167.603368
4.98970827,165.289854
4.99164992,162.55525
4.99359157,159.444493
4.99553323,156.005942
4.99844571,150.343164
5.00232901,142.110774
5.01300811,118.112877
5.01883307,105.576055
5.02271637,97.7616601
5.02465803,94.0445057
5.02757051,88.7186652
5.02975487,84.9242026
5.03218194,80.9090584
5.03582254,75.2761431
5.03946314,70.0943397
5.04310374,65.3389942
5.04674434,60.9817637
5.0491714,58.2833788
5.052812,54.5232031
5.05523907,52.1952953
5.05887967,48.950742
5.06130674,46.9409258
5.0637338,45.0448503
5.06616087,43.2553831
5.06980147,40.7564495
5.07222854,39.2049025
5.0746556,37.738104
5.07708267,36.3506587
5.0819368,33.7939865
5.08679094,31.4984322
5.09164507,29.4322979
5.0964992,27.5680666
5.10135334,25.8818643
5.10620747,24.3529713
5.1110616,22.9633905
5.11591574,21.6974689
5.12076987,20.5415701
5.12319694,20.0010992
5.12805107,18.9883944
5.13290521,18.0586926
5.14018641,16.8013606
5.14504054,16.0439925
5.14989467,15.3439281
5.15717587,14.3894128
5.16445707,13.535582
5.17173827,12.7690098
5.17901947,12.0783864
5.18630067,11.4541398
5.19358187,10.8881318
5.19843601,10.5396736
5.20814427,9.90402518
5.21299841,9.61371993
5.22027961,9.2088303
5.22756081,8.83708278
5.23565468,8.45848895
5.24212321,8.17943761
5.25183148,7.79548706
5.25668561,7.61771499
5.26639388,7.28756989
5.27124801,7.13413423
5.28581041,6.71482551
5.29551868,6.46549312
5.31008108,6.13011579
5.32464348,5.8345179
5.33920588,5.57260678
5.35376828,5.33941225
5.36833068,5.13084848
5.37803895,5.00379466
5.39745548,4.77464468
5.40716375,4.67110665
5.42658028,4.4830627
5.43628855,4.39752668
5.45570508,4.24123019
5.48482988,4.03834955
5.50424642,3.92070133
5.52366295,3.81491887
5.55278775,3.67518052
5.58191255,3.55450154
5.60132909,3.48298538
5.62559976,3.40223302
5.65957869,3.30303562
5.68384936,3.24065079
5.73239069,3.13340641
5.78093203,3.04528081
5.82947336,2.97239411
5.8780147,2.91186789
5.92655603,2.86152909
5.97509737,2.81971166
6.0236387,2.78512072
6.07218004,2.75673767
6.14499204,2.72407618
6.24207471,2.69594149
6.33915738,2.68232086
6.38769872,2.68019029
6.48478139,2.68420532
6.63040539,2.70870726
6.7760294,2.75314506
6.9216534,2.81627008
7.06727741,2.89783591
7.21290141,2.99838129
7.35852542,3.11913642
7.50414942,3.26201028
7.64977343,3.42964075
7.79539743,3.62550363
7.8924801,3.77393086
7.95290197,3.87434419
8.03696,4.02528085
8.1348,4.21911986
8.18372,4.32409502
8.28156,4.55194741
8.33048,4.67564052
8.42832,4.94489311
8.47724,5.09152111
8.57508,5.41185425
8.67292,5.77313768
8.72184,5.97124264
8.79522,6.29302039
8.84414,6.52562117
8.91752,6.90491794
8.96644,7.18023544
9.03982,7.6312162
9.08874,7.9601228
9.16212,8.50167234
9.2355,9.10931778
9.30888,9.79416361
9.3578,10.3001914
9.38226,10.5697669
9.43118,11.145344
9.45564,11.4528175
9.50456,12.1112485
9.52902,12.4640487
9.57794,13.2219956
9.62686,14.057674
9.65132,14.5080262
9.70024,15.4815445
9.7247,16.0082533
9.77362,17.1516921
9.80173477,17.8689745
9.83568369,18.800659
9.87146,19.8686056
9.90815,21.0668974
9.94484,22.3831663
9.98153,23.8334533
10.01822,25.4366257
10.05491,27.2149968
10.0916,29.1951098
10.12829,31.4087372
10.14052,32.2049057
10.16498,33.8941685
10.17721,34.7908049
10.20167,36.6978811
10.2139,37.7126584
10.23836,39.8767351
10.26282,42.2383701
10.28728,44.8223987
10.29951,46.2066524
10.32397,49.1798677
10.34843,52.4570158
10.37289,56.0810212
10.394904,59.6809647
10.419364,64.1118028
10.438932,68.0288184
10.453608,71.2114017
10.463392,73.4609588
10.473176,75.8205713
10.487852,79.5824711
10.497636,82.2505043
10.512312,86.5151
10.522096,89.5477075
10.536772,94.4086498
10.546556,97.8753412
10.561232,103.449095
10.571016,107.436726
10.585692,113.869556
10.600368,120.90393
10.615044,128.617093
10.62972,137.099055
10.644396,146.455197
10.659072,156.809516
10.673748,168.308691
10.688424,181.127227
10.7031,195.473998
10.707992,200.637929
10.717776,211.600636
10.72756,223.488687
10.737344,236.408574
10.744682,246.848446
10.754466,261.878951
10.761804,274.070446
10.771588,291.693486
10.778926,306.047721
10.78871,326.889434
10.798494,349.925026
10.808278,375.470001
10.818062,403.897894
10.822954,419.328685
10.827846,435.653359
10.832738,452.941327
10.83763,471.268763
10.842522,490.719391
10.847414,511.385384
10.852306,533.368386
10.857198,556.780682
10.86209,581.746527
10.869428,622.413653
10.87432,651.899953
10.881658,700.141657
10.88655,735.278714
10.893888,793.042717
10.89878,835.324762
10.901226,857.71334
10.906118,905.202927
10.908564,930.399151
10.913456,983.955701
10.915902,1012.43077
10.920794,1073.09014
10.92324,1105.41342
10.928132,1174.43043
10.930578,1211.29333
10.93547,1290.19558
10.939139,1354.3126
10.942808,1423.09785
10.946477,1496.9878
10.950146,1576.46691
10.953815,1662.07339
10.958707,1786.79029
10.962376,1889.13718
10.964822,1961.98161
10.967268,2038.80322
10.969714,2119.86787
10.97216,2205.46062
10.974606,2295.8869
10.977052,2391.47372
10.979498,2492.57073
10.981944,2599.55128
10.98439,2712.81325
10.986836,2832.77976
10.989282,2959.89942
10.991728,3094.64627
10.994174,3237.51903
10.99662,3389.03962
10.999066,3549.75064
11.002735,3809.27625
11.005181,3995.43355
11.00885,4295.80887
11.011296,4510.95923
11.014965,4857.3072
11.018634,5233.26136
11.0230368,5724.73076
11.0269504,6198.49011
11.030864,6705.2129
11.0367344,7517.39917
11.0474968,9068.69257
11.0514104,9599.32066
11.0543456,9963.55224
11.0563024,10184.2698
11.0582592,10383.5163
11.060216,10558.1651
11.0621728,10705.3159
11.0641296,10822.4061
11.0660864,10907.3163
11.0680432,10958.463
11.07,10974.8704
11.0719568,10956.2163
11.0739136,10902.8472
11.0758704,10815.7626
11.0778272,10696.5677
11.079784,10547.4014
11.0817408,10370.843
11.0836976,10169.8062
11.0856544,9947.42789
11.0885896,9580.96163
11.0925032,9047.84409
11.1032656,7492.3766
11.1071792,6944.03853
11.1110928,6421.79273
11.1130496,6172.26512
11.1169632,5698.48075
11.11892,5474.63779
11.122589,5078.59868
11.125035,4831.52127
11.127481,4597.65089
11.129927,4376.56811
11.133596,4067.83447
11.137265,3784.92688
11.140934,3525.91239
11.144603,3288.85266
11.148272,3071.86683
11.151941,2873.17024
11.15561,2691.09611
11.159279,2524.1054
11.162948,2370.78877
11.166617,2229.86346
11.169063,2142.21855
11.172732,2019.41807
11.175178,1942.90567
11.18007,1801.54484
11.184962,1674.16698
11.187408,1615.19263
11.1923,1505.73875
11.197192,1406.51028
11.199638,1360.35905
11.20453,1274.32519
11.209422,1195.8727
11.214314,1124.174
11.219206,1058.506
11.224098,998.235591
11.22899,942.807258
11.233882,891.73247
11.238774,844.580655
11.243666,800.971464
11.251004,741.474003
11.255896,705.32982
11.260788,671.705279
11.268126,625.510028
11.275464,583.828253
11.282802,546.101333
11.29014,511.852891
11.297478,480.674954
11.304816,452.216703
11.312154,426.175286
11.319492,402.288275
11.32683,380.327453
11.334168,360.093667
11.33906,347.476927
11.348844,324.130971
11.353736,313.320136
11.36352,293.242447
11.373304,275.014645
11.378196,266.524906
11.38798,250.67225
11.40021,232.751366
11.41244,216.669376
11.422224,204.964193
11.432008,194.174925
11.441792,184.209097
11.451576,174.985546
11.46136,166.432813
11.471144,158.487788
11.480928,151.094573
11.490712,144.203522
11.500496,137.77042
11.51028,131.755792
11.520064,126.124309
11.529848,120.844274
11.544524,113.521629
11.554308,109.001615
11.564092,104.744938
11.578768,98.8105135
11.593444,93.3643074
11.60812,88.3544351
11.627688,82.2760709
11.637472,79.4686047
11.65704,74.2668321
11.666824,71.85483
11.686392,67.3694919
11.696176,65.2823073
11.713298,61.8555966
11.727974,59.1282848
11.745096,56.1680546
11.75488,54.5751201
11.77934,50.8768592
11.8038,47.5420081
11.82826,44.5246571
11.85272,41.7859094
11.87718,39.2926354
11.90164,37.0164788
11.9261,34.9330549
11.95056,33.0213028
11.96279,32.123999
11.98725,30.4362601
12.01171,28.8788448
12.0484,26.7590604
12.0643854,25.9084066
12.0888454,24.6839052
12.10955,23.7146507
12.13401,22.6421881
12.1707,21.1665175
12.20739,19.8324582
12.24408,18.622598
12.28077,17.5221219
12.31746,16.5183618
12.35415,15.6004347
12.39084,14.7589503
12.4153,14.2363655
12.46422,13.2738255
12.48868,12.8301279
12.5376,12.0096821
12.58652,11.2691048
12.61098,10.9256611
12.6599,10.2870866
12.70882,9.70669808
12.741776,9.34519193
12.772838,9.02433414
12.82141,8.55808347
12.845696,8.33998011
12.894268,7.93130235
12.94284,7.55637894
12.967126,7.38058345
13.015698,7.05058158
13.06427,6.74732551
13.112842,6.46867542
13.161414,6.21281272
13.209986,5.97821501
13.258558,5.76364009
13.30713,5.56811967
13.355702,5.39096358
13.404274,5.2317766
13.452846,5.09049128
13.501418,4.96742204
13.54999,4.86334915
13.598562,4.77964602
13.647134,4.71847142
13.67142,4.69729081
13.695706,4.68306226
13.7394208,4.67712229
13.768564,4.6892764
13.7977072,4.71655799
13.8268504,4.76147615
13.8559936,4.82725176
13.8851368,4.91805882
13.91428,5.03936772
13.9434232,5.19844248
13.962852,5.33017499
13.9822808,5.48670997
13.9919952,5.57568952
14.011424,5.77850972
14.0211384,5.89398675
14.03571,6.08750354
14.0454244,6.23171889
