energy [eV],cross section [b]
1e-05,226.260554
1.09815805e-05,215.911825
1.1963161e-05,206.864461
1.30303859e-05,198.21213
1.38560618e-05,192.215748
1.46817377e-05,186.732601
1.59202516e-05,179.322143
1.69620521e-05,173.72795
1.80038527e-05,168.626635
1.90456532e-05,163.949829
2.00874538e-05,159.641745
2.2059199e-05,152.340036
2.33736958e-05,147.994385
2.46881926e-05,144.000597
2.70040137e-05,137.687589
2.94918727e-05,131.752176
3.19797318e-05,126.523611
3.40724438e-05,122.57654
3.72115118e-05,117.292532
4.03505798e-05,112.637798
4.29910693e-05,109.123914
4.56315587e-05,105.919622
4.95922928e-05,101.601941
5.25783626e-05,98.6746488
5.59100128e-05,95.6895128
5.9241663e-05,92.9598768
6.25733132e-05,90.4512569
6.63410011e-05,87.8452322
7.05447266e-05,85.1877121
7.6850315e-05,81.6180935
8.37060761e-05,78.2043344
9.16621825e-05,74.7333189
9.96182888e-05,71.6869129
0.000105616543,69.621517
0.00011230898,67.5153086
0.000122347635,64.6862198
0.000129040072,62.9864753
0.000137484286,61.0215348
0.000145928501,59.2297162
0.000154372715,57.5870053
0.000162816929,56.0738066
0.000173471457,54.324517
0.000184125985,52.7293495
0.000194780513,51.2669251
0.000212156742,49.1226418
0.000232321844,46.9423945
0.000252486947,45.0288572
0.000276170924,43.0547988
0.000293133201,41.7905555
0.000318576615,40.0870284
0.000337758871,38.932075
0.000359161104,37.7542998
0.000391264455,36.172296
0.000412666688,35.2218127
0.000439671059,34.1230342
0.00046667543,33.1210644
0.000493679801,32.2024746
0.00053772062,30.8555904
0.000588829961,29.4861168
0.000622902856,28.6683427
0.00065697575,27.9150426
0.000721463207,26.6382863
0.000785950664,25.5220846
0.000856064755,24.4546203
0.00091030966,23.7148293
0.000964554565,23.038358
0.00104592192,22.12411
0.00111436569,21.43394
0.00118280946,20.8045784
0.00125125323,20.2275901
0.001319697,19.6960923
0.00140605625,19.0816703
0.00149241551,18.5213828
0.00157877476,18.0077208
0.00166513402,17.5345566
0.00182858032,16.7325991
0.00199202662,16.0314903
0.00216973388,15.3609956
0.00237596304,14.6792569
0.00258219219,14.0809172
0.002824409,13.463655
0.00299788275,13.0683438
0.00325809338,12.5356762
0.00345427092,12.1745406
0.00367315226,11.8062699
0.0038920336,11.4695209
0.00411091494,11.1600391
0.00435844289,10.8385418
0.00477270476,10.3575465
0.00504887934,10.0703239
0.00532505392,9.80574715
0.00584775081,9.35732246
0.00637044771,8.96529072
0.00693875074,8.59037913
0.00759826605,8.20918283
0.00825778137,7.87462149
0.00875500201,7.64779821
0.00930976641,7.41649465
0.010141913,7.10580755
0.0106966774,6.91914556
0.0113966541,6.70336232
0.0120966307,6.50659276
0.0127966074,6.32619938
0.013496584,6.16003
0.0143797829,5.96793689
0.0157045812,5.71078289
0.0170293796,5.4842578
0.0187009502,5.23354656
0.0203725209,5.01436795
0.022440176,4.77791741
0.0243467253,4.58715743
0.0262056004,4.42159256
0.0279982616,4.27781182
0.0297723833,4.14850602
0.0315465049,4.03027069
0.0333206266,3.9216116
0.0353269407,3.80873664
0.0375654473,3.69363485
0.0398039538,3.58838819
0.0420424604,3.49166645
0.04598616,3.33878468
0.0502228295,3.19505578
0.0544594991,3.06845153
0.0598051372,2.92833655
0.0651507753,2.80585093
0.0709628288,2.68872306
0.0754594185,2.60755544
0.0799560082,2.53333999
0.0867008927,2.43304638
0.0923744862,2.35734125
0.100884877,2.25600424
0.10655847,2.19530711
0.112974609,2.13225894
0.123712635,2.03794354
0.130871319,1.98163119
0.138030002,1.92976414
0.151578758,1.84186903
0.165127513,1.76504262
0.17985842,1.69158642
0.196953627,1.61691627
0.214048834,1.55139766
0.226937223,1.50698776
0.241317196,1.4617098
0.262887156,1.40090858
0.286339129,1.34278238
0.304483129,1.30251193
0.322627129,1.26569871
0.340771129,1.23187586
0.378921565,1.16888353
0.416354061,1.11572683
0.455859097,1.06691873
0.499187654,1.0202289
0.542516211,0.97927961
0.593405739,0.937067829
0.629852415,0.910053931
0.68452243,0.873681198
0.748732536,0.836195777
0.794719304,0.812211876
0.863699457,0.77992638
0.915704854,0.758060917
0.973728879,0.73578518
1.0317529,0.715437317
1.08977693,0.696756768
1.15539499,0.677372984
1.26521313,0.648419805
1.33842522,0.631160946
1.41163731,0.615285368
1.55020087,0.588433809
1.68876444,0.565024771
1.82257007,0.545059627
1.95984053,0.526794121
2.15152159,0.504356805
2.32089434,0.486962797
2.46795879,0.473387025
2.61502324,0.461017752
2.83561992,0.44437775
3.0211792,0.431883163
3.20673847,0.42054705
3.39229775,0.410208851
3.57785703,0.400737627
3.92905249,0.384816124
4.16318279,0.375430987
4.3973131,0.366875016
4.80979329,0.353507819
5.25291585,0.341149882
5.6960384,0.330469608
6.2260992,0.319479875
6.75616,0.310078045
7.42215784,0.300087834
7.89246601,0.294048574
8.36277418,0.28872297
9.06823644,0.281885858
9.7264,0.276577254
10.3088,0.272624369
11.4418908,0.266653745
12.0401454,0.264307186
13.2208,0.261107614
14.4368606,0.259606811
15.57952,0.259725567
16.7152,0.261253683
17.2976,0.262579576
18.4624,0.266355738
19.6272,0.271696574
20.2096,0.274990502
21.3744,0.282929693
22.4703226,0.292209669
23.1216,0.298653282
23.9952,0.308512964
24.8688,0.319933272
25.4512,0.328521295
26.0336,0.337978364
26.616,0.348394308
27.1984,0.359872848
27.7808,0.372534086
28.3632,0.386517535
28.9999769,0.403512413
29.6143942,0.421828481
30.256,0.443259926
30.9112,0.467952245
31.5664,0.495951841
32.2216,0.527839595
32.7312,0.555783056
33.3136,0.591655466
33.6048,0.611381969
34.0416,0.64351004
34.3328,0.666801569
34.624,0.691755084
34.9152,0.718530068
35.352,0.762506151
35.6432,0.794670132
36.08,0.847795303
36.3712,0.886881778
36.7179449,0.937788595
37.0992,0.999994594
37.2448,1.02567942
37.536,1.08061641
37.8272,1.14081512
37.9728,1.17310016
38.264,1.24252921
38.5552,1.31918607
38.7008,1.3605431
38.992,1.45005299
39.1376,1.49854262
39.4288,1.60395588
39.5744,1.66132257
39.7928,1.75390803
39.9384,1.82040957
40.084,1.89111032
40.2296,1.96637268
40.448,2.08871186
40.5936,2.17724018
40.7392,2.27195189
40.8848,2.37343873
41.1032,2.53984836
41.2488,2.66136653
41.4672,2.86176198
41.6128,3.00897487
41.6856,3.08711589
41.8312,3.25332318
41.9768,3.43405154
42.0496,3.53039748
42.1952,3.73626898
42.268,3.84633744
42.4136,4.08225986
42.4864,4.20879589
42.632,4.48093771
42.7776,4.78145628
42.8504,4.94361001
42.996,5.29461545
43.0688,5.48479368
43.178,5.79051709
43.2872,6.12337434
43.3964,6.48668319
43.4692,6.74767907
43.5784,7.17058089
43.6876,7.63562983
43.7968,8.14863218
43.906,8.7164303
44.0152,9.3471326
44.1244,10.0504054
44.2336,10.8378462
44.27,11.1213714
44.3428,11.7234657
44.3792,12.0433349
44.452,12.7243165
44.4884,13.0870256
44.5612,13.8613202
44.5976,14.2748838
44.6704,15.1603702
44.7068,15.6347674
44.7796,16.6538186
44.8524,17.7771915
44.9252,19.0196332
44.99072,20.2539881
45.06352,21.7734459
45.12176,23.1168719
45.16544,24.2085187
45.19456,24.9801875
45.2528,26.639433
45.28192,27.5322367
45.34016,29.4589895
45.3984,31.5967808
45.44208,33.3576081
45.48576,35.2707009
45.51488,36.6394896
45.55856,38.8477857
45.60224,41.2628079
45.64592,43.9111185
45.6896,46.8236706
45.73328,50.0367047
45.77696,53.5928657
45.82064,57.5426026
45.86432,61.9459376
45.908,66.8747173
45.92256,68.6488802
45.95168,72.4155026
45.9808,76.5003248
46.00992,80.9399838
46.02448,83.3057736
46.0536,88.3584241
46.08272,93.8832463
46.11184,99.9404431
46.13368,104.874407
46.1621064,111.859699
46.19192,119.95771
46.22104,128.73994
46.25016,138.513959
46.26472,143.819608
46.27928,149.432794
46.29384,155.377408
46.3084,161.679666
46.32296,168.368384
46.33752,175.475286
46.35208,183.035358
46.36664,191.087248
46.3812,199.673726
46.40304,213.660938
46.4176,223.80301
46.43944,240.396894
46.454,252.483649
46.47584,272.354699
46.4904,286.900533
46.49768,294.602837
46.51224,310.941037
46.51952,319.609716
46.53408,338.036172
46.54136,347.833457
46.55592,368.704815
46.5632,379.826742
46.57776,403.575055
46.58504,416.259694
46.5996,443.410964
46.61052,465.475167
46.62144,489.14649
46.63236,514.575233
46.64328,541.928236
46.6542,571.390846
46.66876,614.315297
46.67968,649.541761
46.68696,674.614484
46.69424,701.056668
46.70152,728.959882
46.7088,758.422313
46.71608,789.549172
46.72336,822.453096
46.73064,857.254533
46.73792,894.082094
46.7452,933.072854
46.75248,974.372573
46.75976,1018.13581
46.76704,1064.5259
46.77432,1113.71467
46.7816,1165.88197
46.78888,1221.21478
46.7998,1310.5722
46.80708,1374.67012
46.818,1478.09912
46.82528,1552.18486
46.8362,1671.4519
46.84712,1800.9197
46.860224,1970.17637
46.871872,2133.34326
46.88352,2307.87342
46.900992,2587.63791
46.933024,3122.09506
46.944672,3304.9533
46.953408,3430.49198
46.959232,3506.57887
46.965056,3575.27637
46.97088,3635.50722
46.976704,3686.27208
46.982528,3726.68778
46.988352,3756.02372
46.994176,3773.73371
47.0,3779.48085
47.005824,3773.15327
47.011648,3754.86944
47.017472,3724.97265
47.023296,3684.01497
47.02912,3632.73224
47.034944,3572.01209
47.040768,3502.8574
47.046592,3426.34805
47.055328,3300.24427
47.066976,3116.7629
47.099008,2581.29368
47.110656,2392.4963
47.122304,2212.67006
47.128128,2126.74546
47.139776,1963.59117
47.1456,1886.5045
47.15652,1750.11221
47.1638,1665.0177
47.17472,1545.85608
47.18564,1436.41038
47.19656,1336.07217
47.20748,1244.1838
47.2184,1160.07604
47.22932,1083.09319
47.24024,1012.6089
47.25116,948.035375
47.26208,888.827986
47.273,834.486717
47.28392,784.55561
47.2912,753.512313
47.30212,710.03172
47.3094,682.949999
47.32032,644.948239
47.3276,621.234227
47.34216,577.340429
47.34944,557.017544
47.364,519.298036
47.37856,485.10104
47.39312,454.02395
47.40768,425.716537
47.42224,399.873648
47.4368,376.228909
47.45136,354.549329
47.46592,334.630689
47.4732,325.274785
47.48776,307.668006
47.50232,291.412984
47.51688,276.378695
47.52416,269.282542
47.53872,255.865998
47.55328,243.404153
47.57512,226.315055
47.59696,210.928383
47.6188,197.029593
47.64064,184.43625
47.66248,172.992552
47.68432,162.564881
47.69888,156.120072
47.72072,147.13791
47.73528,141.567469
47.75712,133.778735
47.77168,128.933206
47.8008,119.990215
47.81536,115.859401
47.84448,108.205747
47.8736,101.27812
47.88816,98.0584802
47.91728,92.0586788
47.9464,86.5879147
47.9828,80.4029243
48.0192,74.8521071
48.04832,70.8116612
48.07744,67.0871174
48.10656,63.6465936
48.13568,60.462107
48.1648,57.5090195
48.19392,54.7655709
48.22304,52.2124871
48.26672,48.7028653
48.29584,46.5548264
48.32496,44.5449143
48.36864,41.7641216
48.41232,39.2343021
48.456,36.9262665
48.49968,34.8149343
48.54336,32.8786608
48.58704,31.0986891
48.63072,29.4587013
48.68896,27.4654345
48.71808,26.5434438
48.77632,24.8328182
48.80544,24.0385638
48.83456,23.2816324
48.87824,22.2112451
48.91464,21.3743977
48.95832,20.4308774
49.00928,19.4066505
49.0384,18.8554429
49.1112,17.5755486
49.184,16.4211926
49.2568,15.3765259
49.3296,14.4281194
49.4024,13.564534
49.4752,12.7759778
49.548,12.0540296
49.5844,11.7157208
49.6572,11.0803535
49.73,10.4951704
49.8028,9.95503797
49.8392,9.7004388
49.9484,8.99249195
50.0576,8.35917478
50.1668,7.79038485
50.276,7.2776705
50.3852,6.81391773
50.458,6.52893736
50.5672,6.13385397
50.6764,5.77358757
50.7856,5.44417733
50.8584,5.24000714
50.9676,4.9546667
51.0404,4.77722168
51.1496,4.52845193
51.2224,4.37327882
51.368,4.08601702
51.4408,3.95292848
51.5864,3.70563032
51.732,3.48095344
51.8776,3.27623127
52.0232,3.08917823
52.1688,2.91782633
52.3144,2.76047363
52.46,2.61564233
52.6056,2.48204426
52.7512,2.35855244
52.8968,2.24417752
53.0424,2.13804807
53.188,2.03939416
53.3336,1.94753352
53.4792,1.86185979
53.6248,1.7818327
53.8432,1.67133754
53.9888,1.60342374
54.1344,1.53967435
54.3528,1.45114232
54.5712,1.37025541
54.7896,1.29616386
55.008,1.22813254
55.2992,1.14575952
55.5904,1.07174137
55.736,1.03751961
56.0272,0.974055829
56.1728,0.944603975
56.464,0.889795782
56.6096,0.864274604
56.828,0.828138153
57.0464,0.794377871
57.3376,0.752715456
57.6288,0.714500996
57.7744,0.696570718
58.0656,0.662858564
58.4507847,0.622248414
58.7936,0.589484691
59.2304,0.551770624
59.5216,0.528854321
59.9584,0.497423469
60.2496,0.478232524
60.6864,0.451793866
60.9776,0.435582666
61.2688,0.420396464
61.56,0.406154128
61.9968,0.386402304
62.2152,0.377192335
62.652,0.359982589
62.8704,0.351939193
63.5256,0.329823641
64.1808,0.310383516
64.836,0.293242074
65.3456,0.281299193
65.928,0.268966669
66.2192,0.263280025
66.8016,0.252780026
67.384,0.243345164
67.9664,0.234872184
68.5488,0.227273519
69.1244,0.220550101
69.7,0.214548075
70.3736,0.208373155
71.19959,0.20196121
71.75025,0.198354379
72.30091,0.195258551
72.85157,0.192660364
73.3143102,0.190856053
73.8649702,0.189157972
74.50355,0.187804474
75.32954,0.187061087
76.15553,0.187516937
76.98152,0.189280618
77.394515,0.190700976
77.80751,0.192513885
78.4270025,0.196038955
78.90883,0.199522884
79.18416,0.20183684
79.73482,0.207249295
80.01015,0.210387163
80.56081,0.217643236
80.83614,0.221817195
81.249135,0.228853002
81.524465,0.234116794
81.799795,0.239891406
82.21279,0.249626139
82.48812,0.256920201
82.76345,0.264940632
83.03878,0.273770602
83.451775,0.288747641
83.727105,0.300055929
84.002435,0.312583625
84.277765,0.326495073
84.41543,0.33402892
84.69076,0.350390087
84.828425,0.359279872
85.103755,0.378656431
85.24142,0.389225067
85.51675,0.412358854
85.7232475,0.431673409
85.929745,0.452911989
86.1362425,0.476330174
86.34274,0.502227752
86.5492375,0.530958206
86.6869025,0.551889519
86.8245675,0.574407946
87.031065,0.611520976
87.2375625,0.653212996
87.44406,0.700258559
87.581725,0.735055231
87.71939,0.772979249
87.7882225,0.793231434
87.9258875,0.836582924
88.0291362,0.871824977
88.132385,0.909659181
88.2012175,0.936448687
88.3388825,0.994173532
88.407715,1.0253008
88.54538,1.09262979
88.6142125,1.12907939
88.7518775,1.20825716
88.8551263,1.27378108
88.9239587,1.32073811
88.9927913,1.37056318
89.09604,1.45120545
89.1648725,1.50929718
89.233705,1.57120692
89.3369537,1.67198771
89.4057863,1.74502313
89.4746188,1.82325466
89.5778675,1.95146429
89.6467,2.04503125
89.7155325,2.14585427
89.8187813,2.31240474
89.8876138,2.4349669
89.9564462,2.56797464
90.0252788,2.71264822
90.0941112,2.87039133
90.1629438,3.04282516
90.2317762,3.23183006
90.3006088,3.43959683
90.3694412,3.66869027
90.4382738,3.92212832
90.4864565,4.1159063
90.527756,4.29394586
90.5897053,4.58399283
90.6241215,4.75828365
90.665421,4.98114818
90.692954,5.1387061
90.74802,5.47753523
90.775553,5.65987674
90.830619,6.05344091
90.858152,6.26603605
90.913218,6.72675906
90.9545175,7.10694362
90.995817,7.52069899
91.0371165,7.97208492
91.078416,8.46579171
91.1197155,9.00726101
91.1472485,9.39786459
91.1747815,9.81462999
91.216081,10.4941118
91.243614,10.9873071
91.271147,11.5162867
91.3124465,12.3846931
91.3399795,13.019566
91.3675125,13.7046721
91.3950455,14.4454211
91.4225785,15.2479657
91.4501115,16.119327
91.4707613,16.8228019
91.5051775,18.1018562
91.5327105,19.2329193
91.5602435,20.4730756
91.5877765,21.8366787
91.6153095,23.3404963
91.6428425,25.0042072
91.656609,25.9031179
91.6772588,27.3444523
91.6910253,28.3726599
91.711675,30.0261727
91.7254415,31.2093223
91.7460913,33.1180976
91.7598578,34.4884022
91.7805075,36.7068218
91.794274,38.3051426
91.8149238,40.902549
91.8355735,43.7687033
91.8562232,46.9411233
91.876873,50.4639262
91.8975228,54.3892245
91.9181725,58.7788634
91.9250558,60.3576183
91.9388223,63.7065934
91.9457055,65.4835387
91.959472,69.2607972
91.9663553,71.2692156
91.9801218,75.5479261
91.9938882,80.2090825
92.0076548,85.2974895
92.0214213,90.8643136
92.0317461,95.3883051
92.042071,100.241973
92.0558375,107.280149
92.069604,115.042316
92.0833705,123.623632
92.097137,133.133706
92.1040203,138.275774
92.1143451,146.521539
92.1212284,152.401724
92.1281116,158.612451
92.1349949,165.176069
92.1453197,175.735926
92.152203,183.290004
92.1590863,191.288
92.1659695,199.759839
92.1762944,213.425967
92.1831776,223.225183
92.1935025,239.046992
92.2038274,256.331002
92.2141523,275.211475
92.2244771,295.825351
92.2313604,310.597645
92.2382436,326.238014
92.2485685,351.400082
92.2554518,369.349397
92.262335,388.260163
92.2733482,420.527536
92.2871147,464.237064
92.2953746,492.106545
92.3036345,521.009905
92.3394274,650.236676
92.3504406,687.028006
92.3587005,711.949725
92.3642071,726.861661
92.3697137,740.146783
92.3752203,751.590808
92.3807269,760.999335
92.3862335,768.205573
92.3917401,773.07742
92.4,775.820183
92.4055066,774.55432
92.4110132,770.833974
92.4165198,764.729229
92.4220264,756.353054
92.427533,745.856181
92.4330396,733.420537
92.4385462,719.251771
92.4440528,703.571382
92.4523127,677.71924
92.4633259,640.092902
92.4936122,530.238665
92.5046254,491.494756
92.5156386,454.58768
92.5266518,419.902942
92.537665,387.637088
92.5479899,359.637169
92.5583148,333.783694
92.5686396,309.995861
92.5789645,288.161764
92.5858477,274.627755
92.592731,261.864507
92.5996143,249.831249
92.6064975,238.487496
92.6133808,227.793583
92.620264,217.711056
92.6271473,208.20294
92.6340305,199.23391
92.6409138,190.770402
92.647797,182.780656
92.6546803,175.234728
92.6615635,168.104461
92.6684468,161.363439
92.6787716,151.928076
92.6856549,146.055446
92.6925381,140.492343
92.702863,132.68583
92.7166295,123.18963
92.7235127,118.796793
92.7357721,111.503367
92.7441625,106.872032
92.757929,99.845898
92.7648123,96.5778359
92.7785788,90.4852358
92.785462,87.6439428
92.7992285,82.3335604
92.8061118,79.8508146
92.8198783,75.1993287
92.8267615,73.0194074
92.840528,68.9258607
92.8542945,65.1571831
92.8611778,63.3843792
92.8749442,60.0434037
92.8887108,56.9532019
92.895594,55.4945872
92.9093605,52.7367297
92.923127,50.1750099
92.9368935,47.7916853
92.9575433,44.5170279
92.9713098,42.5140527
92.9850763,40.6409728
92.9988428,38.8869988
93.0126093,37.2424178
93.0263757,35.6984693
93.0401423,34.2472376
93.0539088,32.8815579
93.0676753,31.5949332
93.0814418,30.3814631
93.1020915,28.6868117
93.115858,27.633772
93.1296245,26.6370787
93.1571575,24.7974501
93.1846905,23.1404561
93.198457,22.3730615
93.22599,20.9477077
93.2397565,20.2852275
93.2672895,19.0506179
93.281056,18.4749138
93.308589,17.398726
93.3223555,16.8953876
93.3498885,15.9518189
93.363655,15.5092877
93.391188,14.6775488
93.4049545,14.2864708
93.4324875,13.549668
93.446254,13.2024109
93.4875535,12.2369948
93.5150865,11.650971
93.556386,10.8477779
93.583919,10.357587
93.6252185,9.68236001
93.6527515,9.26827564
93.694051,8.69531155
93.721584,8.34241545
93.7628835,7.85213304
93.7904165,7.54897897
93.8179495,7.26311177
93.8454825,6.99324613
93.886782,6.61592356
93.914315,6.38117538
93.969381,5.94786678
94.024447,5.55750428
94.079513,5.20460913
94.134579,4.88454723
94.189645,4.59337786
94.2515943,4.2961735
94.299777,4.08472073
94.3617263,3.83529211
94.3961425,3.70659523
94.464975,3.46815021
94.4993913,3.35758812
94.5682238,3.15198719
94.6370563,2.96500289
94.6714725,2.87779864
94.740305,2.71475424
94.8091375,2.56544451
94.8435538,2.49546381
94.9123862,2.36401025
94.9812188,2.24290834
95.0500512,2.13110045
95.1533,1.97882027
95.2221325,1.88643722
95.290965,1.80056444
95.3597975,1.72060492
95.42863,1.64602847
95.4974625,1.57636296
95.566295,1.51118686
95.6351275,1.45012287
95.70396,1.39283245
95.7727925,1.33901119
95.841625,1.28838472
95.9104575,1.24070525
95.97929,1.19574853
96.0481225,1.15331121
96.1857875,1.07527253
96.3234525,1.00530041
96.392285,0.972996363
96.52995,0.913164876
96.667615,0.859027736
96.7708638,0.821736311
96.8741125,0.786995721
97.0117775,0.744253226
97.1494425,0.705171569
97.2871075,0.669343997
97.35594,0.65253865
97.493605,0.62094728
97.5624375,0.606090061
97.768935,0.564892395
97.9754325,0.52818182
98.18193,0.495328429
98.3884275,0.465809035
98.594925,0.439186196
98.8014225,0.415091899
99.00792,0.393214749
99.2144175,0.373289835
99.3520825,0.360977905
99.55858,0.343819359
99.696245,0.333177138
99.971575,0.313599224
100.10924,0.30458316
100.38457,0.287921538
100.522235,0.280214684
100.797565,0.265914258
101.072895,0.252943306
101.21056,0.246905029
101.48589,0.235633621
101.898885,0.220509853
102.174215,0.211462504
102.58721,0.199224464
102.86254,0.191847008
103.275535,0.181797228
103.550865,0.1756981
103.826195,0.170026286
104.101525,0.164742106
104.376855,0.159810393
104.78985,0.153006277
105.34051,0.144903385
