energy [eV],cross section [b]
1e-05,10185.5212
1.06578339e-05,9866.19357
1.16445848e-05,9438.94334
1.23024187e-05,9183.13529
1.30468017e-05,8917.33675
1.42931998e-05,8519.69565
1.51241319e-05,8282.37065
1.5955064e-05,8063.83611
1.75294313e-05,7693.23675
1.91037986e-05,7369.45191
2.08162556e-05,7059.85812
2.28048918e-05,6745.0606
2.4793528e-05,6468.94241
2.62937111e-05,6281.71831
2.79683199e-05,6090.7867
3.0480233e-05,5834.46055
3.21548418e-05,5680.52978
3.42700963e-05,5502.46289
3.63853508e-05,5340.15984
3.85006054e-05,5191.4242
4.06158599e-05,5054.46539
4.32877089e-05,4896.03188
4.72954824e-05,4684.05444
5.13032558e-05,4497.43119
5.63656091e-05,4290.78245
6.14279623e-05,4110.23972
6.69343405e-05,3937.61183
7.11972927e-05,3817.95868
7.75917209e-05,3657.32559
8.45470121e-05,3503.73518
8.993169e-05,3397.27783
9.5316368e-05,3299.97568
0.000100701046,3210.58765
0.000106794169,3117.71003
0.000113595736,3022.99459
0.000120397304,2936.42492
0.000127198871,2856.89679
0.000139190943,2731.15521
0.000152077875,2612.97778
0.000164964807,2508.93813
0.000181242724,2393.73806
0.000192094668,2325.21689
0.000208372585,2232.65775
0.00022208004,2162.74658
0.000242641223,2069.21224
0.000256348678,2013.21312
0.000271859579,1955.02942
0.000289173926,1895.69621
0.000306488273,1841.46755
0.00032380262,1791.65141
0.00034339496,1739.89252
0.000376200458,1662.46584
0.000398070791,1616.25884
0.000419941123,1573.71305
0.00046137885,1501.56887
0.000502816577,1438.54569
0.000547888856,1378.29237
0.000600230239,1317.03505
0.000652571623,1263.31271
0.000714094856,1207.89104
0.000758170961,1172.41131
0.000802247067,1139.90162
0.000846323172,1109.96989
0.00090199718,1075.34998
0.000957671188,1043.80009
0.0010133452,1014.8923
0.0010690192,988.277814
0.00117450477,943.154837
0.00127999033,903.744483
0.00139472816,866.07404
0.00152797051,827.784858
0.00166121286,794.213962
0.00181782891,759.590691
0.00193003084,737.431367
0.00209833373,707.600101
0.0022252977,687.382054
0.00236702372,666.772206
0.00250874974,647.942853
0.00265047576,630.652429
0.00281084821,612.69524
0.00298986711,594.392176
0.003168886,577.672373
0.00334790489,562.320976
0.00366353911,538.067226
0.00400272627,515.295516
0.00434191342,495.269145
0.00477035211,473.120983
0.00519879079,453.797531
0.00566480834,435.347974
0.00602559186,422.577424
0.00638637538,410.918922
0.00692755066,395.193424
0.00738326843,383.335195
0.0078389862,372.543383
0.00829470398,362.669019
0.00875042175,353.590693
0.00961387037,338.230087
0.0101895028,329.116405
0.0107651352,320.760909
0.011780052,307.586906
0.012870703,295.252125
0.0139613539,284.436191
0.01522704,273.420398
0.0164310474,264.189673
0.0176350547,255.959889
0.0187951484,248.824095
0.020535289,239.332067
0.0216953827,233.683083
0.0230315721,227.744434
0.0245438574,221.654579
0.0260092107,216.303078
0.027427632,211.567816
0.0290623111,206.581634
0.0309132481,201.46255
0.032764185,196.825368
0.0355405904,190.632694
0.0393181052,183.408513
0.04309562,177.284739
0.0478456943,170.80156
0.0522754669,165.71811
0.0567052394,161.373125
0.0620523496,156.919847
0.0673994599,153.166802
0.0742476264,149.177005
0.0794902968,146.627105
0.0862926022,143.849697
0.0904735724,142.395158
0.09883278,139.967955
0.104406496,138.653399
0.114280206,136.814964
0.12670136,135.22163
0.137848792,134.325726
0.148996224,133.823921
0.160143656,133.631758
0.18243852,133.905902
0.249323112,136.256973
0.271617976,136.381795
0.288339124,135.94778
0.299486556,135.352306
0.310633988,134.48547
0.327355136,132.642795
0.344076284,130.127738
0.360797432,126.948069
0.371944864,124.478332
0.388666012,120.298439
0.399813444,117.232959
0.416534592,112.292574
0.444403172,103.424063
0.494566616,86.8935514
0.51686148,79.8254327
0.539156344,73.1321144
0.561451208,66.8936436
0.583746072,61.1505919
0.60046722,57.1755546
0.617188368,53.4816217
0.635302945,49.7868539
0.65620438,45.9003868
0.67013867,43.520417
0.691040105,40.2444462
0.704974395,38.2430394
0.718908685,36.3770697
0.732842975,34.6376964
0.747346027,32.9526297
0.760901142,31.4852841
0.78161299,29.4277563
0.802514425,27.5567342
0.82341586,25.8703854
0.844317295,24.3492616
0.86521873,22.9760048
0.886120165,21.7351822
0.9070216,20.6131114
0.92095589,19.9249989
0.93489018,19.2810219
0.949097825,18.6667717
0.97669305,17.5853141
1.00456163,16.6269487
1.03243021,15.7867178
1.06029879,15.0507673
1.08816737,14.4073979
1.11603595,13.8467455
1.12997024,13.5947913
1.15783882,13.1430928
1.18158173,12.80933
1.19964169,12.5847272
1.22751027,12.2846538
1.25537885,12.037716
1.28569675,11.8259252
1.31938413,11.656755
1.33714976,11.5947348
1.37268102,11.5260716
1.39044665,11.5193693
1.42597791,11.5619485
1.44374354,11.6118874
1.46150917,11.681584
1.49249555,11.8525267
1.51480606,12.0167515
1.54145451,12.2616536
1.56810295,12.5643716
1.5947514,12.9312005
1.62139984,13.3700495
1.63916547,13.7074268
1.66581392,14.2895746
1.69246236,14.9761721
1.71911081,15.7856225
1.73687644,16.4048535
1.75020066,16.9169575
1.76352488,17.4745403
1.78129051,18.2971103
1.79905614,19.2224935
1.80793896,19.7286588
1.82570459,20.839597
1.8345874,21.4497868
1.84791162,22.4422516
1.85679444,23.1606079
1.87011866,24.3335445
1.87900148,25.1860277
1.8923257,26.5842373
1.90120851,27.6052772
1.91453274,29.2886058
1.92341555,30.5245253
1.93673977,32.57409
1.950064,34.894498
1.9545054,35.7362692
1.96338822,37.5343766
1.97227103,39.5006453
1.97671244,40.553244
1.98559526,42.8118208
1.99003666,44.024211
1.99891948,46.6329946
2.00336089,48.0372866
2.0122437,51.0675793
2.01668511,52.7032859
2.02556792,56.2426592
2.03000933,58.1581637
2.03889215,62.3133246
2.04555426,65.7415056
2.05221637,69.4660348
2.05887848,73.5151361
2.06554059,77.9186029
2.0722027,82.7072297
2.07664411,86.128905
2.08108552,89.7443971
2.08552692,93.5620842
2.08996833,97.5895072
2.09440974,101.832962
2.09885115,106.296995
2.10284841,110.50509
2.1081781,116.395396
2.11528435,124.730353
2.12594373,138.146736
2.15081561,171.139639
2.15792187,179.815499
2.16325155,185.676165
2.16680468,189.17541
2.17035781,192.287006
2.17391093,194.961514
2.17746406,197.154298
2.18279375,199.459249
2.18634687,200.299691
2.18972234,200.56468
2.19522969,199.874434
2.19878282,198.7043
2.20233594,196.990767
2.20588907,194.765819
2.20944219,192.06939
2.21654845,185.451392
2.22187813,179.621393
2.22898439,171.037188
2.2514,141.8956
2.2607178,130.305475
2.26941484,120.223468
2.27811187,110.965794
2.2868089,102.561755
2.29260692,97.423727
2.30130396,90.3773462
2.30826158,85.2728298
2.31521921,80.6021712
2.32159703,76.6699047
2.32739506,73.3604266
2.33319308,70.2826309
2.34189011,66.0587438
2.34768813,63.4790417
2.35348615,61.0695305
2.35928418,58.8155806
2.36798121,55.6974205
2.37377923,53.7764881
2.38128619,51.4570774
2.38827429,49.4516525
2.39987033,46.4117156
2.41146637,43.6832364
2.42306242,41.220428
2.43465846,38.9860209
2.44625451,36.9496038
2.46074956,34.6449735
2.47524462,32.5717984
2.48684066,31.0587274
2.4984367,29.660623
2.51003275,28.3663852
2.52162879,27.1665087
2.53322484,26.0527748
2.54482088,25.018012
2.55641692,24.0559074
2.56801297,23.1608606
2.57960901,22.3278682
2.59120506,21.5524333
2.6028011,20.8304936
2.62454368,19.6084665
2.64628626,18.5404881
2.66802885,17.6085581
2.68977143,16.7973977
2.71151401,16.0940139
2.7332566,15.4873632
2.75499918,14.9680832
2.77674176,14.5282758
2.79848434,14.1613291
2.82022693,13.8617704
2.83472198,13.6972651
2.86371209,13.4479346
2.87820715,13.3614424
2.90719725,13.2618249
2.92169231,13.2479616
2.95068242,13.2913812
2.96517747,13.3488055
2.99377752,13.5333739
3.01652036,13.7499777
3.03330024,13.9514112
3.05471928,14.2628279
3.0654288,14.4425965
3.08684784,14.8535081
3.09755736,15.0861826
3.1189764,15.6104503
3.12968592,15.9041289
3.14039544,16.2204115
3.16181448,16.926265
3.18323352,17.7404293
3.20465256,18.67803
3.22071684,19.4731943
3.23678112,20.3573665
3.2528454,21.3413702
3.26355492,22.0590039
3.27426444,22.8308734
3.29032872,24.1009592
3.306393,25.5224769
3.32245728,27.1173842
3.3331668,28.289687
3.34387632,29.5595145
3.3599406,31.6695765
3.37065012,33.2303731
3.38135964,34.9302951
3.39206916,36.7850277
3.40277868,38.8124408
3.4134882,41.0329359
3.42419772,43.4698505
3.43490724,46.1499309
3.44561676,49.1038809
3.45632628,52.366996
3.4670358,55.9798915
3.47774532,59.9893269
3.48845484,64.4491226
3.4938096,66.8668985
3.49916436,69.4211523
3.50451912,72.1210448
3.51255126,76.4655516
3.51790602,79.5738175
3.52326078,82.8649117
3.52861554,86.3510096
3.53664768,91.974149
3.54200244,96.0055983
3.55003458,102.51312
3.55806672,109.618829
3.56609886,117.375826
3.574131,125.837475
3.58216314,135.054992
3.59019528,145.073902
3.59555004,152.216218
3.6009048,159.736856
3.60947242,172.558986
3.62018194,189.906284
3.63303336,212.397642
3.65873621,259.576944
3.66730382,274.317656
3.67372954,284.401987
3.67801334,290.492951
3.68229715,295.97232
3.68658096,300.752767
3.69086477,304.753511
3.69514858,307.90344
3.69943238,310.144055
3.70371619,311.432049
3.70864257,311.702545
3.71228381,311.064108
3.71656762,309.411607
3.72085142,306.813245
3.72513523,303.315441
3.72941904,298.97951
3.73370285,293.879013
3.73798666,288.096759
3.74227046,281.721661
3.74869618,271.248667
3.75726379,256.062475
3.78082474,211.954095
3.78939235,196.45438
3.79795997,181.711485
3.80224378,174.673619
3.81081139,161.321374
3.8150952,155.017824
3.82312734,143.872669
3.8284821,136.924441
3.83383686,130.351147
3.83919162,124.140488
3.84722376,115.472926
3.85257852,110.103945
3.85793328,105.043396
3.86596542,97.9947406
3.87132018,93.6333173
3.87667494,89.5235656
3.88470708,83.7977379
3.89273922,78.5556076
3.90077136,73.7522982
3.9088035,69.3466625
3.91735,65.0536151
3.92234598,62.7164808
3.93185082,58.5896854
3.94135566,54.8429202
3.94610808,53.0988954
3.95561292,49.8459985
3.96036533,48.3285556
3.96987017,45.4921867
3.97462259,44.1661697
3.98412743,41.6823343
3.98887985,40.5186417
3.99838469,38.3343242
4.00313711,37.3088212
4.01264194,35.3799965
4.02214678,33.6007299
4.0268992,32.7626045
4.03640404,31.1811185
4.0506613,29.0237609
4.06016613,27.7134787
4.06967097,26.4947941
4.07917581,25.3595699
4.09343307,23.7974791
4.1029379,22.8406203
4.11244274,21.9447946
4.12337331,20.9835568
4.13620484,19.9405197
4.14570968,19.2219088
4.15521451,18.5453138
4.16471935,17.9075639
4.18372903,16.7373748
4.2027387,15.6913889
4.22174838,14.7530753
4.24075806,13.9086351
4.25976773,13.1464571
4.27877741,12.4566939
4.29778708,11.8309328
4.31679676,11.2619416
4.33580644,10.7434697
4.34531127,10.5014542
4.35956853,10.1582242
4.376202,9.78557744
4.39996409,9.30009226
4.41184514,9.07612837
4.43560723,8.66196465
4.44748828,8.47041792
4.47125038,8.11539646
4.48313142,7.95085293
4.51877457,7.50346033
4.54253666,7.23967792
4.5781798,6.88881952
4.61382295,6.58490782
4.63758504,6.4051836
4.67322818,6.16593448
4.70887133,5.95909354
4.74451447,5.78089325
4.76827656,5.67644541
4.81580075,5.49851636
4.83956285,5.42373923
4.88708704,5.29989393
4.91084913,5.24995678
4.95837332,5.17230201
5.00589751,5.12250797
5.04476177,5.10141437
5.09767431,5.10009657
5.15058686,5.12991513
5.2034994,5.19114893
5.25641194,5.28490859
5.30932449,5.41315608
5.36223703,5.57873328
5.39751206,5.71166194
5.45042461,5.94813826
5.48569964,6.1326439
5.53861218,6.45344577
5.58446972,6.77727556
5.61268975,6.99855465
5.64090977,7.23660515
5.68323981,7.62373618
5.72556984,8.0424329
5.86666996,9.531183
6.00071508,10.8761674
6.03599011,11.2590889
6.06421013,11.598065
6.08537515,11.8787525
6.10654017,12.187621
6.13476019,12.6521459
6.1488702,12.9105485
6.16377262,13.2048176
6.1932229,13.8589011
6.21531061,14.4212174
6.23739832,15.0537304
6.25948603,15.7645966
6.27862871,16.4501018
6.30218894,17.3885178
6.32574916,18.4340771
6.35519944,19.8826625
6.38759475,21.6210933
6.42882514,23.9937131
6.44649531,25.0798861
6.46122045,26.0380357
6.48478067,27.7165962
6.49656078,28.6431344
6.5083409,29.6404649
6.52012101,30.7179272
6.53190112,31.8848903
6.54368123,33.1509826
6.55546134,34.5263781
6.56926167,36.2915785
6.57708047,37.3724298
6.58489926,38.5166635
6.60053686,41.0132348
6.61226505,43.0878227
6.62008385,44.5780433
6.62790264,46.1617471
6.63963084,48.7290793
6.64744963,50.5808368
6.65526843,52.5558734
6.66699662,55.7733987
6.67481542,58.1063479
6.68263421,60.6059058
6.69436241,64.7027461
6.7021812,67.6922907
6.70921812,70.5797081
6.71547316,73.3172481
6.72172819,76.2296385
6.72954699,80.1387591
6.73736579,84.3768499
6.74518458,88.980807
6.75300338,93.9926596
6.76082217,99.4604056
6.76864097,105.439
6.77645977,111.991528
6.78427856,119.190594
6.79209736,127.119973
6.79600676,131.388241
6.80382555,140.599524
6.81164435,150.81321
6.81555375,156.339104
6.82141784,165.206671
6.82532724,171.535822
6.83119134,181.715409
6.83510074,188.997386
6.84096483,200.736131
6.84682893,213.550376
6.8514,224.362054
6.85670214,237.896613
6.86207443,252.804878
6.86744671,269.039138
6.872819,286.735516
6.87819128,306.042554
6.8817728,319.887616
6.88535432,334.570184
6.89072661,358.279522
6.89430813,375.288648
6.89788965,393.324619
6.90326194,422.424473
6.90684346,443.266125
6.91042498,465.319102
6.9140065,488.626814
6.91937879,526.014484
6.92403477,560.814507
6.92833259,594.90612
6.93263042,630.825759
6.93692825,668.446699
6.94409129,734.317417
6.95984999,884.31008
6.96558043,935.563112
6.96987826,970.717135
6.97274347,992.003869
6.97560869,1011.20452
6.97847391,1028.01659
6.98133913,1042.15966
6.98420435,1053.38614
6.98706956,1061.4915
6.98993478,1066.32319
6.99265674,1067.79511
6.99566522,1065.85457
6.99853044,1060.55862
7.00139565,1051.99757
7.00426087,1040.3279
7.00712609,1025.75771
7.00999131,1008.53767
7.01285653,988.950746
7.01572174,967.301418
7.02001957,931.65084
7.02575001,879.827287
7.04150871,728.778895
7.05010436,649.879111
7.0558348,600.703026
7.06156523,554.757501
7.06443045,533.053711
7.06801197,507.125341
7.07338426,470.709522
7.07875654,437.17742
7.08412882,406.385366
7.08950111,378.160824
7.09308263,360.679143
7.09845491,336.318275
7.10203644,321.237826
7.10740872,300.222862
7.11099024,287.208397
7.11457176,274.933329
7.11815329,263.351509
7.12173481,252.419289
7.12531633,242.095522
7.12889785,232.34153
7.13247938,223.121038
7.1360609,214.400081
7.13964242,206.146911
7.14322394,198.331878
7.14680547,190.927321
7.15396851,177.248231
7.16113156,164.923713
7.1682946,153.79243
7.17187612,148.629754
7.17903917,139.031721
7.18620221,130.31075
7.19336526,122.368316
7.19694678,118.661782
7.20410983,111.729692
7.20769135,108.486648
7.21485439,102.40699
7.21843592,99.5560379
7.22559896,94.1993643
7.22918048,91.6818309
7.23634353,86.9415072
7.23992505,84.7089359
7.25066962,78.5088428
7.25783266,74.7511739
7.26857723,69.6100087
7.27574028,66.4783745
7.28648484,62.1734172
7.29364789,59.5391097
7.30439246,55.9022058
7.3115555,53.6674198
7.32230007,50.5700004
7.32946312,48.6594991
7.34020768,46.0020903
7.34737073,44.3573313
7.35811529,42.0621131
7.36527834,40.6370541
7.37960443,38.0131796
7.39393052,35.6576325
7.40825661,33.535989
7.4225827,31.6191438
7.43690879,29.882363
7.45123488,28.3045264
7.46556097,26.8675167
7.47988706,25.5557256
7.49421315,24.3556506
7.50853924,23.2555653
7.52286533,22.2452478
7.53719142,21.3157561
7.55151751,20.4592409
7.5658436,19.6687903
7.58016969,18.9382981
7.59449578,18.2623544
7.61598492,17.3403463
7.630311,16.7808686
7.6446371,16.2612602
7.67133382,15.3884236
7.69307776,14.7589734
7.72206968,14.0182902
7.73656564,13.6855194
7.76555756,13.086202
7.79454948,12.5650276
7.8235414,12.111493
7.83803736,11.907245
7.86702928,11.5388066
7.8960212,11.217907
7.92501312,10.9382566
7.95400504,10.6942735
7.98299696,10.4809459
8.01198888,10.2937247
8.0409808,10.128444
8.08446868,9.9133432
8.12795656,9.72728303
8.31640404,9.03273572
8.4033798,8.68309413
8.59695,7.8069459
8.64386914,7.60540599
8.68320032,7.45596467
8.71691276,7.35359146
8.73938772,7.30753621
8.75624394,7.29123226
8.77310016,7.29782539
8.78433764,7.31959428
8.79557512,7.35933366
8.8090601,7.43553402
8.82029758,7.52413865
8.84052504,7.71345998
8.84839128,7.77256198
8.85738126,7.80561839
8.8652475,7.79270788
8.87198998,7.74848098
8.87985622,7.66402771
8.90794992,7.25679558
8.9191874,7.11190401
8.93042488,6.99055181
8.94166236,6.89114657
8.95851858,6.7756161
8.9753748,6.69044745
8.99223102,6.62718833
9.01470598,6.56737537
9.03718094,6.52816236
9.0596559,6.50458978
9.11022456,6.49428752
9.170448,6.53708717
9.2873256,6.69007074
9.3290676,6.73036162
9.379158,6.74289197
9.4042032,6.72998807
9.4292484,6.70286647
9.4709904,6.62604595
9.5210808,6.48762028
9.5628228,6.34423252
9.6546552,5.9967311
9.7047456,5.81817027
9.754836,5.66229789
9.7882296,5.57409275
9.83832,5.46749402
9.880062,5.40263786
9.921804,5.35912444
9.963546,5.33601971
10.026159,5.33696452
10.06395,5.35653193
10.1116432,5.39966235
10.1777939,5.48966412
10.2108693,5.5461288
10.2770201,5.67801912
10.3431708,5.82966206
10.4093216,5.99429938
10.7202302,6.81105128
10.7731508,6.97122023
10.8227638,7.14799338
10.8558392,7.2888695
10.8889146,7.45635626
10.92199,7.65976658
10.9467965,7.84303583
10.971603,8.05964434
10.9964096,8.31748094
11.0212161,8.62629916
11.036,8.83945755
11.0494376,9.05514201
11.0725275,9.48236053
11.0879208,9.81334014
11.0956174,9.99461512
11.1110107,10.3923742
11.1187074,10.6104412
11.1341007,11.089217
11.1417973,11.3517447
11.1571906,11.9278417
11.1648872,12.2433616
11.1802805,12.9341512
11.1879772,13.3112196
11.2033705,14.1324907
11.2141458,14.7623661
11.2233817,15.3386156
11.2356964,16.1577395
11.248011,17.030335
11.2603256,17.947113
11.2941909,20.5482676
11.3065055,21.4389744
11.3157415,22.0505916
11.3280561,22.7560436
11.3342134,23.0495316
11.3403707,23.2969084
11.3465281,23.4938789
11.3526854,23.6368986
11.3588427,23.7233292
11.3640764,23.751068
11.3711573,23.7210818
11.3773146,23.6325169
11.3834719,23.4875861
11.3896293,23.2890318
11.4019439,22.7463552
11.4142585,22.0414117
11.4234945,21.4319739
11.4327305,20.7738916
11.4758317,17.521905
11.4943036,16.2244489
11.5066183,15.4280071
11.5158542,14.8705437
11.5266295,14.2644805
11.5343262,13.8607031
11.5497195,13.1240346
11.5651128,12.477149
11.5805061,11.9130921
11.5882027,11.6597844
11.603596,11.2059439
11.6189893,10.8165385
11.6343826,10.4849781
11.6420792,10.3390193
11.6574725,10.0833992
11.6728658,9.87223173
11.6882591,9.70137012
11.7036524,9.56728602
11.7267423,9.42875428
11.7498323,9.3584032
11.7729222,9.35032627
11.7960121,9.40035024
11.8191021,9.50573894
11.8321493,9.58914541
11.8493736,9.72533166
11.8687265,9.91369731
11.8911641,10.179255
11.9136017,10.4963105
11.9360394,10.8661047
11.9509978,11.1426296
11.9659562,11.4436315
11.9809147,11.7694647
11.9958731,12.12038
12.0227982,12.8153775
12.0467317,13.5002908
12.0706652,14.244603
12.1065654,15.4552448
12.1843492,18.2142816
12.2082827,18.9867285
12.2262328,19.5014816
12.2501663,20.068808
12.2681164,20.3842755
12.2800832,20.5346763
12.2920499,20.6336344
12.3111967,20.6803691
12.3219667,20.645391
12.3339335,20.555347
12.3518836,20.3230756
12.3638503,20.1075383
12.3758171,19.8477905
12.3997506,19.2138106
12.4177007,18.6579071
12.4356508,18.0525198
12.5254013,14.815785
12.5613015,13.6235711
12.585235,12.8984027
12.5972018,12.5588118
12.6241269,11.8525151
12.6390854,11.4948073
12.6540438,11.1615778
12.6764814,10.7066172
12.6989191,10.3037411
12.7213567,9.95071611
12.7363151,9.74193471
12.7512735,9.55364886
12.766232,9.38525404
12.7811904,9.23620175
12.7961488,9.10601029
12.8111072,8.99427368
12.8335449,8.86059055
12.8485033,8.7937796
12.8634617,8.74470526
12.8858994,8.7044346
12.9008578,8.70006435
12.9156685,8.71381435
12.9402351,8.77758655
12.9620314,8.87912397
12.9765623,8.97179545
12.9910931,9.08573435
13.005624,9.22228548
13.0201548,9.38304433
13.0346857,9.56989412
13.0492165,9.78505053
13.0637474,10.031116
13.0855436,10.4649958
13.1000745,10.8028957
13.1146053,11.1849576
13.1291362,11.6165923
13.143667,12.104208
13.1581979,12.6554222
13.1727287,13.2793288
13.1872596,13.986837
13.2017904,14.791102
13.2163213,15.7080804
13.2235867,16.214762
13.2308521,16.7572478
13.2381176,17.3386757
13.2490157,18.2915764
13.2562811,18.9865171
13.2635466,19.734483
13.270812,20.5406174
