energy [eV],cross section [b]
1e-05,4109.85546
1.08724036e-05,3941.5196
1.17448073e-05,3792.30669
1.26848632e-05,3649.08035
1.34017702e-05,3550.13752
1.41186771e-05,3458.82983
1.51940376e-05,3334.18359
1.60777265e-05,3241.25884
1.69614154e-05,3155.6942
1.87287932e-05,3003.10772
1.98180644e-05,2919.41005
2.09073355e-05,2842.34165
2.30858778e-05,2704.9064
2.50998982e-05,2594.11538
2.71139186e-05,2495.91019
2.92841201e-05,2401.64506
3.17666842e-05,2305.89093
3.42492482e-05,2220.74642
3.71168429e-05,2133.23517
3.91569164e-05,2076.92032
4.22170265e-05,2000.23028
4.44944022e-05,1948.36777
4.70090803e-05,1895.53818
5.07810974e-05,1823.77833
5.32957755e-05,1780.23153
5.63954707e-05,1730.61517
5.94951659e-05,1684.92865
6.25948611e-05,1642.67918
6.7604962e-05,1580.63787
7.3336179e-05,1517.61652
7.90673959e-05,1461.57795
8.56874901e-05,1403.98164
9.2752023e-05,1349.45326
9.98165558e-05,1300.82134
0.000105621911,1264.56583
0.000111427266,1231.18191
0.000120135299,1185.71936
0.000130193895,1138.99303
0.000137349813,1108.92387
0.00015166165,1055.30178
0.000164892668,1012.07517
0.000182534024,961.922391
0.000192380728,936.980028
0.000203253458,911.572522
0.000219562552,877.060764
0.000237136367,843.933547
0.000257239625,810.282946
0.000277342882,780.360755
0.000300564034,749.606708
0.0003170841,729.815933
0.000341864199,702.864595
0.000360305887,684.638379
0.000380669198,666.072235
0.000401032508,648.938722
0.000431577473,625.549257
0.000456678123,608.112137
0.000481778774,592.05605
0.000531980075,563.423204
0.00057839021,540.341126
0.00064027039,513.560429
0.000693878457,493.318078
0.000751085491,474.153776
0.000808292525,457.061654
0.000855303014,444.319215
0.000925818748,427.057305
0.000996334481,411.661834
0.00105428154,400.184249
0.00111222859,389.615629
0.00119914917,375.223
0.00126383666,365.489683
0.00133526457,355.574741
0.0014781204,337.946225
0.00160187933,324.62141
0.0016899243,316.046511
0.00177796927,308.116581
0.00192027817,296.471611
0.00208306993,284.642355
0.00224586169,274.123464
0.00243390147,263.31182
0.00256767734,256.354146
0.00276834113,246.878826
0.00291767787,240.470819
0.00308257548,233.943128
0.00332992189,225.076046
0.0034948195,219.694926
0.00369807905,213.563573
0.0039013386,207.917634
0.00410459814,202.696244
0.00430785769,197.848712
0.00455840374,192.325295
0.00480894979,187.239117
0.00505949583,182.535354
0.00546445854,175.62768
0.00592770853,168.610314
0.00639095851,162.369927
0.00692605578,155.955472
0.00749707669,149.882057
0.00806809759,144.464815
0.0085373401,140.425819
0.00900658262,136.706402
0.00971044638,131.640712
0.0102342714,128.214584
0.010812679,124.724208
0.011969494,118.517535
0.0126151822,115.430265
0.0133281511,112.285028
0.0147540887,106.691889
0.0159894077,102.463279
0.0168682423,99.741567
0.0177470769,97.2242054
0.0191675553,93.5268072
0.0202508428,90.9720019
0.0218757741,87.5008913
0.0235442962,84.3165396
0.0253,81.311086
0.02680014,78.9800187
0.02830028,76.8362714
0.0299462311,74.6714435
0.0315921823,72.6774995
0.0348840845,69.1201952
0.0369129514,67.1680054
0.0389418182,65.3698068
0.0429995518,62.1614427
0.0467508483,59.573355
0.0505021448,57.2778283
0.0545443431,55.0729782
0.057627011,53.5489428
0.0622510127,51.4775247
0.0687902105,48.9105159
0.0722467403,47.6957691
0.0791598,45.5077897
0.0828748799,44.4459118
0.0875586971,43.2039231
0.0922425142,42.0569909
0.102154972,39.8930724
0.107928437,38.7712546
0.113701902,37.7351935
0.119475367,36.7744336
0.125920404,35.7801805
0.136595318,34.2893442
0.147270232,32.9619739
0.159600761,31.5958899
0.172759097,30.3007558
0.185917434,29.1440871
0.196730437,28.2807592
0.212949941,27.1097875
0.229169446,26.0639817
0.242497996,25.283408
0.255826547,24.5639585
0.269155097,23.8980355
0.282483648,23.2793072
0.298912965,22.5737551
0.315342282,21.9235551
0.3317716,21.3218439
0.348200917,20.762901
0.368452367,20.125705
0.398829541,19.262054
0.429206716,18.491529
0.464612869,17.690636
0.502736351,16.925067
0.529057782,16.4458828
0.559827911,15.929648
0.605983104,15.2315591
0.652138298,14.610672
0.690066819,14.1492317
0.72799534,13.7257328
0.765923862,13.3355547
0.803852383,12.9748406
0.856215626,12.519338
0.93226571,11.932729
1.01967575,11.3491341
1.07730449,11.0085488
1.13493323,10.6980097
1.22137633,10.2810608
1.3295735,9.82923389
1.38822183,9.61215935
1.50551851,9.22800076
1.62751484,8.88908795
1.71507616,8.67839383
1.80886791,8.47910225
1.90818169,8.29464321
2.0130175,8.12645673
2.12094917,7.97889175
2.23197671,7.85159657
2.3750905,7.7206912
2.50731101,7.63000401
2.596552,7.58401468
2.68579299,7.54963188
2.81965448,7.51884135
3.00891631,7.5159098
3.19512965,7.55768952
3.30685765,7.60364609
3.41858565,7.66526849
3.6320799,7.82727746
3.84687633,8.05122665
3.953949,8.18700492
4.05791811,8.33512229
4.163439,8.50268717
4.26832406,8.6874258
4.37172901,8.88840519
4.47379456,9.10635338
4.57931546,9.35358706
4.68483635,9.62480635
4.78415013,9.90375251
4.88346391,10.2075784
4.98277769,10.5384192
5.09450569,10.9459398
5.19381947,11.3426612
5.30102649,11.8111682
5.40179608,12.2936783
5.51658926,12.8988665
5.61590304,13.4757837
5.71521682,14.1082035
5.81453059,14.8027927
5.93867282,15.7703865
6.01315816,16.4107939
6.08764349,17.1015654
6.16212882,17.8478703
6.23661416,18.6555766
6.3110995,19.5313675
6.38558483,20.4828798
6.45378626,21.4279698
6.5345555,22.6494302
6.60904084,23.8862107
6.68352617,25.2427496
6.7580115,26.734835
6.8076684,27.8138725
6.85732528,28.9675804
6.93181062,30.8537155
6.98146751,32.2266659
7.0311244,33.7028247
7.08078129,35.2927803
7.13043818,37.0085228
7.16768085,38.3860026
7.21733774,40.3557827
7.25458041,41.9423545
7.29182307,43.6315438
7.32906574,45.4324088
7.37872263,48.0248753
7.4159653,50.1275791
7.45320797,52.380413
7.49045063,54.7980576
7.54010752,58.3068202
7.57735019,61.1770229
7.62700708,65.3640785
7.66424975,68.8076884
7.71390664,73.860533
7.75114931,78.0417368
7.77597775,81.0381362
7.80080619,84.2176315
7.82563464,87.5955042
7.85046309,91.1886673
7.87529153,95.0158786
7.90011997,99.0979885
7.93736264,105.750633
7.96219109,110.577653
7.98689839,115.727452
8.01148455,121.228748
8.03667642,127.295013
8.06150487,133.743488
8.08633331,140.708452
8.11116176,148.246742
8.1359902,156.423236
8.16081865,165.312266
8.18564709,174.999315
8.21047554,185.58309
8.22288976,191.246321
8.24771821,203.395549
8.27254665,216.764194
8.28496087,223.957541
8.30358221,235.450287
8.31599643,243.619245
8.33213492,254.901037
8.34951483,267.964493
8.3644119,279.990542
8.37682612,290.650912
8.39172319,304.278538
8.40165456,313.910452
8.42151732,334.617764
8.43641439,351.540666
8.45131145,369.796438
8.46620852,389.528811
8.48607128,418.421621
8.50096834,442.276395
8.51586541,468.250709
8.53076248,496.60302
8.54069386,516.97142
8.55062523,538.628748
8.5655223,573.77733
8.57545368,599.169132
8.58538506,626.294744
8.59531644,655.315259
8.60524781,686.410841
8.61517919,719.783489
8.62511057,755.660269
8.63504195,794.297129
8.64497333,835.983385
8.6549047,881.047051
8.66483608,929.861179
8.67476746,982.851426
8.68469884,1040.50515
8.69463022,1103.38236
8.6995959,1136.97785
8.70952728,1208.93259
8.71945866,1287.92311
8.72442435,1330.34451
8.73435573,1421.69943
8.74428711,1522.75031
8.74925279,1577.34166
8.75670133,1664.86544
8.76166702,1727.29596
8.76911555,1827.68315
8.77656408,1937.00173
8.78401262,2056.32724
8.78897831,2142.04148
8.79642684,2280.89421
8.80387537,2433.50881
8.81132391,2601.72864
8.81877244,2787.70876
8.82622097,2993.97952
8.83366951,3223.52513
8.8386352,3391.20593
8.84360089,3571.99694
8.84608373,3667.72723
8.85104942,3870.78683
8.85601511,4090.69105
8.8609808,4329.28575
8.86346364,4456.2357
8.86842933,4726.88032
8.87339502,5022.00205
8.87836071,5344.49914
8.8833264,5697.68463
8.88829209,6085.35332
8.89325778,6511.85978
8.89822346,6982.20886
8.90318915,7502.1602
8.905672,7782.77203
8.90939626,8232.05252
8.91187911,8551.94798
8.91560338,9065.09981
8.91808622,9431.15455
8.92181049,10019.4338
8.92429333,10439.8257
8.9280176,11116.5862
8.93050044,11600.984
8.93422471,12381.9387
8.93670755,12941.6496
8.94043182,13845.0232
8.94415609,14831.6141
8.94788035,15909.2967
8.95160462,17086.2399
8.95408747,17930.0842
8.95657031,18824.0895
8.96029458,20264.0379
8.96277742,21292.85
8.96526027,22378.5894
8.96972939,24479.1967
8.97171566,25473.1983
8.97568821,27569.2131
8.97767449,28668.2006
8.98164704,30955.3335
8.99555097,39329.9835
8.99952352,41539.9772
9.00250293,43033.7589
9.00448921,43925.6935
9.00647548,44718.5587
9.00846176,45399.4955
9.01044804,45956.8741
9.01342745,46540.1059
9.01541372,46749.8534
9.01730069,46811.7553
9.01938628,46723.1438
9.02137255,46487.0973
9.02335883,46107.5419
9.0253451,45591.4577
9.02733138,44948.0808
9.02931765,44188.5033
9.03130393,43325.2189
9.0332902,42371.6481
9.03626962,40802.3896
9.03924903,39107.8099
9.05116669,31885.0706
9.05712551,28419.9947
9.06109806,26260.6871
9.06507061,24243.3734
9.06705689,23290.4547
9.06953973,22152.0547
9.073264,20553.1729
9.07698827,19080.847
9.08071253,17728.7534
9.0844368,16489.3117
9.08691965,15721.5758
9.09064391,14651.651
9.09312676,13989.2688
9.09685102,13066.1488
9.09933387,12494.4173
9.10181671,11955.1312
9.10429956,11446.2671
9.1067824,10965.9109
9.10926525,10512.2583
9.11174809,10083.6134
9.11423094,9678.38527
9.11671378,9295.0845
9.11919662,8932.31861
9.12167947,8588.78723
9.12416231,8263.27707
9.129128,7661.87215
9.13409369,7119.9473
9.13905938,6630.42374
9.14154223,6403.35981
9.14650791,5981.17769
9.1514736,5597.52116
9.15643929,5248.06513
9.15892214,5084.96514
9.16388783,4779.89651
9.16637067,4637.15995
9.17133636,4369.54426
9.1738192,4244.03542
9.17878489,4008.1871
9.18126774,3897.3287
9.18623343,3688.56318
9.18871627,3590.2263
9.19368196,3404.66432
9.1961648,3317.08149
9.20113049,3151.49439
9.20857903,2924.87796
9.21354472,2786.79692
9.22099325,2596.91836
9.22595894,2480.68484
9.23340747,2320.15051
9.23837316,2221.46359
9.24333885,2128.8228
9.24830454,2041.75231
9.25575307,1920.65987
9.26071876,1845.71755
9.26568445,1775.00455
9.27065014,1708.21294
9.27561583,1645.06195
9.28058152,1585.29514
9.29051289,1474.99575
9.30044427,1375.6639
9.31037565,1285.90737
9.32030703,1204.54593
9.32527272,1166.6932
9.3352041,1096.08542
9.34513547,1031.62298
9.35258401,986.892048
9.36003254,944.974534
9.36996392,893.068109
9.3798953,845.276739
9.38982668,801.17979
9.39479236,780.399726
9.40968943,722.639464
9.4245865,670.998282
9.43948356,624.64651
9.45438063,582.889799
9.4692777,545.143588
9.47920908,521.959932
9.49410614,489.83512
9.50403752,470.022029
9.51893459,442.460617
9.52886597,425.398063
9.54376303,401.57887
9.55369441,386.782619
9.57355717,359.518371
9.59341992,335.010997
9.6033513,323.676966
9.62321406,302.651755
9.64307681,283.590499
9.66293957,266.257039
9.68528517,248.572034
9.70763077,232.574568
9.72501068,221.165017
9.74983913,206.252919
9.77466757,192.7841
9.78708179,186.533663
9.81191024,174.901563
9.82432446,169.484734
9.84915291,159.371273
9.86156713,154.64674
9.89043703,144.430805
9.91122402,137.682019
9.92363824,133.872031
9.94846669,126.70603
9.96088091,123.334239
9.98570936,116.977373
10.022952,108.314761
10.0477805,103.056967
10.0850231,95.851401
10.1098516,91.4542098
10.13468,87.3488739
10.1595085,83.5102507
10.1967511,78.2038286
10.2215796,74.9385481
10.246408,71.8707724
10.2712365,68.984971
10.2960649,66.2671068
10.3208934,63.7044671
10.3457218,61.2855167
10.3705503,58.9997696
10.4077929,55.8002478
10.4574498,51.9180967
10.5071067,48.4216838
10.5567636,45.2618261
10.6064205,42.3969168
10.6560774,39.7915683
10.7057343,37.4155314
10.7305627,36.3052395
10.7802196,34.225596
10.805048,33.25104
10.8547049,31.4207564
10.8795334,30.560813
10.9291903,28.9418023
10.9540187,28.1792911
11.0036756,26.7404489
11.028504,26.0612826
11.1029894,24.1695483
11.1774747,22.4731821
11.2519601,20.9463634
11.3016169,20.0118133
11.3761023,18.7210214
11.4257592,17.9274138
11.5002445,16.8267183
11.5499014,16.1472681
11.6243867,15.2013543
11.6740436,14.6153282
11.7237005,14.0619125
11.7733574,13.538752
11.8478427,12.8060951
11.8974996,12.3495821
11.9968134,11.5055276
12.0961272,10.7435773
12.195441,10.0535069
12.2947547,9.42662859
12.3940685,8.85552287
12.4933823,8.33382319
12.5926961,7.85604208
12.6920099,7.41742974
12.7913236,7.01385848
12.8906374,6.64172776
12.9899512,6.29788556
13.1389219,5.82919803
13.2878925,5.41000225
13.4368632,5.03363264
13.5858339,4.6945035
13.7348046,4.38790635
13.8837752,4.10985007
14.0575743,3.81701489
14.206545,3.58977913
14.3555157,3.38188532
14.5044863,3.19122151
14.5789717,3.10176838
14.7279423,2.93358792
14.876913,2.77848619
14.9522401,2.70461538
15.1012108,2.56679075
15.2741681,2.4193717
15.3734819,2.34029359
15.5721095,2.19315188
15.770737,2.05924461
15.8700508,1.99676898
16.0686784,1.87992379
16.2673059,1.77288974
16.4659335,1.67461049
16.6645611,1.58416727
16.8631886,1.50075805
17.0618162,1.42368024
17.2604437,1.35231629
17.4590713,1.28612171
17.6576989,1.22461498
17.9556402,1.14022345
18.2535815,1.06418128
18.4382452,1.02077301
18.6368727,0.976957743
18.948778,0.913600378
19.2467193,0.858631247
19.5446607,0.808456096
19.7333569,0.778912469
19.922053,0.750955843
20.2348915,0.707812086
20.5377985,0.669488792
20.865534,0.631437149
21.1237498,0.603707416
21.391897,0.576814292
21.7295638,0.545453626
22.1317846,0.511363478
22.5389711,0.480055824
22.7425644,0.465489949
23.2274655,0.433415211
23.621989,0.409766441
23.8192507,0.398684612
24.2137742,0.377875803
24.6593204,0.356353631
25.0801625,0.337747854
25.5978356,0.316899618
25.942951,0.304122727
26.4395199,0.287148606
26.8938804,0.272933139
27.3629827,0.259439155
27.832085,0.247028018
28.2691692,0.236345738
28.6368372,0.227961768
29.3767249,0.212589784
30.094267,0.199378768
30.7571864,0.188469818
31.5839737,0.176389572
32.2468931,0.1677826
33.0215406,0.158798415
33.845845,0.150367613
34.692458,0.142784193
35.4625914,0.136733332
36.0862,0.132372522
36.7641151,0.128137688
37.4420303,0.124395483
38.1199454,0.121116885
38.7978606,0.118278613
39.4872136,0.115825541
40.1765666,0.11379589
40.6184595,0.112713612
41.4492183,0.1111382
42.1062817,0.110318803
42.7633451,0.109883402
43.3184255,0.109823704
43.8089266,0.110014705
44.5954961,0.110823979
45.0373891,0.11156701
45.479282,0.112531833
45.9123371,0.113705847
46.5795954,0.11599363
46.9132246,0.117373308
47.3816311,0.119600081
47.7859632,0.12181658
48.4001944,0.125762416
48.70731,0.128023895
49.2353721,0.132416041
49.8275086,0.138194954
50.3842937,0.144583744
50.7554838,0.149435122
51.122255,0.154756891
51.6657833,0.163745976
52.1430277,0.172900763
52.4893044,0.180404814
52.7118511,0.18565985
53.0798407,0.195181674
53.2654358,0.200418015
53.6189501,0.211298006
53.9636266,0.223195659
54.1403838,0.2298544
54.317141,0.236930519
54.5822768,0.248402211
54.759034,0.256677612
55.0241697,0.270141184
55.2893055,0.285016686
55.5544413,0.301502011
55.7311984,0.3135005
55.9963342,0.333210939
56.26147,0.355259992
56.5266058,0.380025846
56.7917415,0.407966873
56.8801201,0.418079489
57.0568773,0.439642946
57.1452559,0.451146439
57.3220131,0.475743677
57.4103917,0.488902943
57.5871488,0.51712626
57.7418114,0.544122245
57.8743792,0.569172594
58.0069471,0.596180225
58.139515,0.6253538
58.2720829,0.656930618
58.3383668,0.673703407
58.4709347,0.709404862
58.6035026,0.748262453
58.6697866,0.768992218
58.7802598,0.805652247
58.9128277,0.853468277
59.0012063,0.887911994
59.0895849,0.924618782
59.1779635,0.963791336
59.266342,1.0056556
59.3547206,1.05046405
59.4430992,1.09849949
59.5314778,1.1500796
59.6198564,1.20556215
59.708235,1.26535131
59.7966136,1.32990499
59.8849922,1.39974372
59.9733708,1.47546117
60.0617493,1.55773688
60.1059386,1.60157362
60.1943172,1.69518719
60.2385065,1.74520583
60.3268851,1.85234288
60.3710744,1.90976422
60.459453,2.03316403
60.5036423,2.09952607
60.5920209,2.24265887
60.6583048,2.36009442
60.7466834,2.53195837
60.8240147,2.69859615
60.901346,2.88262144
60.9786772,3.08654319
61.0173429,3.19687491
61.0587703,3.32190568
61.1001978,3.4545502
61.1416252,3.59544013
61.1837432,3.74785131
61.2265515,3.91307376
61.2700504,4.09258673
61.3128588,4.28177054
61.3570481,4.4913576
61.4012374,4.71693578
61.4371412,4.91313907
61.4758068,5.13862294
61.5089488,5.34463581
61.5476144,5.60122303
61.58628,5.87695593
61.6249457,6.17378926
61.6636113,6.49393382
61.7078006,6.89159056
61.7464662,7.27058088
61.7906555,7.74364787
61.8348448,8.26485151
61.8790341,8.84095482
61.9232234,9.47995161
61.9674127,10.1913453
61.9895073,10.5776592
62.0171257,11.0924419
62.0392203,11.5319855
62.0613149,11.9983388
62.0834096,12.4937276
62.1055042,13.0206136
62.1275989,13.5817249
62.1496935,14.1800915
62.1717882,14.819086
62.1938828,15.5024714
62.2159775,16.2344566
62.2435958,17.2250255
62.2656904,18.0845172
62.2933087,19.2528034
62.3154034,20.2712147
62.3430217,21.6623922
62.37064,23.202313
62.3982583,24.9129498
62.4258766,26.8204837
62.436924,27.6454579
62.4534949,28.956308
62.4645423,29.8827944
62.4811133,31.3583231
62.4921606,32.4036656
62.5087316,34.0726228
62.5197789,35.2580274
62.5363499,37.1557108
62.5496067,38.7864936
62.5672824,41.1334637
62.5805392,43.036447
62.5982149,45.7863377
62.6114717,48.0255119
62.6291474,51.2758966
62.6424042,53.935168
62.6600799,57.8149561
62.6777556,62.1285871
62.6865935,64.4685389
62.6954313,66.9430492
62.7042692,69.5626051
62.713107,72.3387322
62.7219449,75.2841201
62.7307828,78.4127654
62.7396206,81.7401366
62.7484585,85.2833628
62.7572963,89.061451
62.7661342,93.0955383
62.7749721,97.4091825
62.7838099,102.028702
62.7926478,106.98357
62.8059046,115.11816
62.8147424,121.065449
62.8191614,124.212625
62.8279992,130.884728
62.8368371,138.106256
62.841256,141.941975
62.8500939,150.105831
62.8589317,158.990099
62.8633507,163.728963
62.8721885,173.86033
62.8766074,179.279658
62.8854453,190.9006
62.8898642,197.135804
62.8964926,207.072067
62.903121,217.771554
62.9097494,229.313582
62.9163778,241.787913
62.9230062,255.296429
62.9296346,269.955113
62.936263,285.896425
62.9428914,303.272143
62.9473103,315.737968
62.9517292,328.976459
62.9583576,350.424889
62.9627766,365.890111
62.9671955,382.383167
62.9738239,409.252211
62.9782428,428.736407
62.9826617,449.614898
62.9870807,472.020573
62.9914996,496.102072
62.9959185,522.025997
63.0003375,549.979482
63.0047564,580.173181
63.0091753,612.844747
63.0135943,648.262886
63.0180132,686.732105
63.0224321,728.598248
63.026851,774.254989
63.03127,824.151426
63.0334794,850.847185
63.0378984,908.088696
63.0423173,970.997193
63.0445268,1004.79859
63.0489457,1077.59737
63.0511552,1116.81768
63.0544694,1179.51982
63.0577836,1247.27777
63.0610977,1320.59986
63.0644119,1400.05118
63.0677261,1486.25942
63.0710403,1579.92081
63.0743545,1681.80591
63.0776687,1792.76485
63.0809829,1913.73143
63.0842971,2045.72507
63.0865066,2140.38869
63.0887161,2240.78876
63.0920303,2402.93634
63.0942397,2519.27812
63.0964492,2642.65878
63.0997634,2841.75857
63.1019728,2984.38134
63.1041823,3135.31636
63.1063918,3294.86478
63.109706,3550.85055
63.1125783,3789.18183
63.1161134,4103.39753
63.1196486,4439.5293
63.1231837,4794.89355
63.1355567,6098.71475
63.1382081,6360.64946
63.1408594,6602.69263
63.142627,6749.42967
63.1443946,6881.95297
63.1461621,6998.1871
63.1479297,7096.20632
63.1496973,7174.30836
63.1514649,7231.08446
63.1532324,7265.4808
63.155,7276.84637
63.1567676,7264.96335
63.1585351,7230.05746
63.1603027,7172.78731
63.1620703,7094.21364
63.1638379,6995.75119
63.1656054,6879.10713
63.167373,6746.21086
63.1691406,6599.14025
63.1717919,6356.67292
63.1753271,6003.78654
63.1850487,4973.53717
63.1903514,4434.7023
63.1938866,4098.67045
63.1956542,3938.78489
63.1983055,3709.65991
63.200294,3546.38518
63.2025035,3373.58635
63.2058177,3131.11559
63.2091319,2908.01383
63.2124461,2703.2319
63.2157603,2515.55973
63.2179697,2399.31995
63.2212839,2237.31997
63.2234934,2137.01442
63.2268076,1997.19696
63.2290171,1910.57924
63.2312265,1828.85745
63.233436,1751.7253
63.2356455,1678.89355
63.2378549,1610.08984
63.2400644,1545.05841
63.2422739,1483.55953
63.2444833,1425.36891
63.2466928,1370.27691
63.2489023,1318.08788
63.2511117,1268.61926
