energy [eV],cross section [b]
1e-05,2529.4161
1.06546622e-05,2450.47616
1.16366555e-05,2344.8027
1.26186489e-05,2251.71819
1.34447441e-05,2181.44492
1.42708394e-05,2117.36545
1.50969347e-05,2058.62031
1.59230299e-05,2004.50823
1.69654505e-05,1941.95013
1.80078712e-05,1884.90584
1.90502918e-05,1832.61022
2.07504093e-05,1755.93205
2.27235003e-05,1677.96758
2.40388943e-05,1631.41342
2.53542882e-05,1588.53086
2.70141377e-05,1538.95503
2.95039119e-05,1472.59005
3.1993686e-05,1414.13118
3.40881918e-05,1369.99823
3.61826975e-05,1329.7551
3.93244562e-05,1275.53094
4.16932007e-05,1238.7678
4.43361839e-05,1201.2781
4.69791672e-05,1166.99836
4.96221504e-05,1135.49519
5.42787298e-05,1085.69686
5.76138176e-05,1053.80518
6.09489054e-05,1024.56835
6.63882082e-05,981.700032
7.27008534e-05,938.112607
7.90134987e-05,899.859133
8.6428184e-05,860.395257
9.17386542e-05,835.121945
9.97043596e-05,801.068343
0.000105710143,777.980552
0.000112411239,754.436478
0.000119112334,732.908322
0.00012581343,713.123905
0.000133391917,692.570961
0.000141847795,671.611836
0.000150303673,652.447302
0.00015875955,634.835064
0.000168322577,616.538682
0.000184327839,589.165334
0.000200333102,565.141799
0.000219132509,540.358164
0.000232596828,524.486344
0.000252793307,503.100475
0.000276515618,481.037976
0.00029350577,466.908824
0.000318990998,447.871059
0.000338205712,434.963795
0.000359644987,421.801476
0.000381084263,409.766184
0.000402523539,398.705755
0.000426769912,387.215712
0.000467350116,370.025431
0.000494403586,359.760821
0.000521457055,350.305793
0.00057266379,334.279982
0.000623870525,320.270277
0.000679547008,306.872571
0.000744162989,293.250244
0.00080877897,281.295045
0.000884675388,268.961692
0.000939033146,261.063287
0.000993390904,253.822453
0.00104774866,247.152741
0.00111634081,239.442073
0.00118493295,232.411092
0.0012535251,225.96548
0.00132211725,220.028282
0.00145194828,209.965118
0.00158177931,201.168052
0.00172294307,192.75539
0.00188677229,184.201814
0.00205060151,176.695165
0.00224303148,168.951211
0.0023808517,163.991987
0.00258758204,157.310043
0.00274344741,152.779924
0.00291735791,148.160397
0.00309126842,143.936526
0.00326517892,140.054887
0.00346185996,136.022584
0.00368131151,131.910728
0.00390076307,128.151075
0.00412021463,124.696069
0.00450685863,119.234869
0.00492223596,114.100791
0.00533761328,109.578652
0.00586176334,104.573773
0.00638591341,100.198873
0.00695581563,96.0154306
0.00739675334,93.1163652
0.00783769105,90.4657199
0.00849909761,86.8838434
0.00905550141,84.1800172
0.00961190522,81.7147339
0.010168309,79.4548865
0.0107247128,77.3734627
0.0117778725,73.8460046
0.0124799789,71.7470275
0.0131820853,69.8182923
0.014419102,66.7699617
0.0157480472,63.9046637
0.0170769924,61.3812889
0.0187539416,58.5890492
0.0198719078,56.9277134
0.021548857,54.6830513
0.0234244285,52.4645901
0.0253,50.4982908
0.0267188095,49.1509069
0.0280818165,47.9542058
0.0298619574,46.5168099
0.0316420982,45.2029091
0.0334222391,43.9958204
0.0354354582,42.7422741
0.0388049041,40.8677501
0.04217435,39.2236458
0.0461320223,37.5286799
0.0503838077,35.9363759
0.0546355932,34.5349114
0.0582123791,33.4776979
0.0635775579,32.0636914
0.0689427367,30.8194743
0.0734561571,29.8811102
0.0779695776,29.0262483
0.0847397084,27.8757453
0.089844082,27.0967118
0.0955394089,26.303208
0.101234736,25.5785535
0.106930063,24.9134408
0.116964459,23.8639343
0.124151192,23.1931673
0.131337925,22.5792899
0.145538093,21.5056612
0.159564964,20.5924066
0.170688901,19.9518046
0.186242858,19.1570821
0.197686314,18.6352746
0.214851499,17.9350742
0.227793275,17.4625015
0.242233371,16.9826367
0.256673467,16.5458969
0.271113563,16.1464619
0.287444335,15.7337103
0.305665785,15.3154053
0.323887235,14.9355217
0.358899005,14.2952475
0.38573181,13.8703633
0.40488502,13.5961373
0.443191441,13.1086874
0.486712545,12.6363716
0.530233648,12.2335743
0.583968332,11.812894
0.636136929,11.4697968
0.670915994,11.2707259
0.736137029,10.9507631
0.797557204,10.7029145
0.859513611,10.496554
0.909513661,10.3574479
0.9665792,10.2248748
1.00585449,10.1482368
1.08440506,10.0269213
1.14512988,9.95955842
1.21657945,9.90692871
1.31657955,9.87739839
1.44225624,9.90717109
1.5665798,10.005305
1.6665799,10.1324891
1.76658,10.3029997
1.8665801,10.5182363
1.9665802,10.7806359
2.01658025,10.9305787
2.11658035,11.2707052
2.1665804,11.4622342
2.25777861,11.851769
2.3665806,12.3916074
2.4665807,12.9699874
2.5665808,13.6396696
2.61658085,14.0134204
2.6665809,14.4160716
2.71658095,14.850195
2.766581,15.318693
2.80779628,15.7330347
2.8665811,16.3723845
2.91658115,16.9655346
2.9665812,17.6091275
3.04158127,18.6814048
3.09158132,19.4771127
3.14158138,20.3465245
3.17908141,21.0523848
3.21658145,21.8091939
3.2665815,22.9061463
3.31658155,24.1160055
3.3665816,25.4546796
3.41658165,26.9410437
3.4665817,28.5976304
3.51658175,30.451516
3.5665818,32.5354682
3.60582475,34.3579021
3.62908186,35.5256563
3.65408189,36.8612821
3.67908191,38.2875871
3.70408194,39.8130435
3.74158197,42.3082213
3.766582,44.1257068
3.79158202,46.0811049
3.81658205,48.1888706
3.84158207,50.4654157
3.8665821,52.9294356
3.89158212,55.6023024
3.91658215,58.5085382
3.94158217,61.67639
3.9665822,65.1385302
3.99158223,68.9329157
4.01658225,73.1038483
4.04158227,77.7032915
4.05408229,80.1824352
4.0715823,83.8753023
4.08658232,87.2649194
4.10158233,90.8812009
4.12658236,97.4696486
4.13658237,100.322174
4.15658239,106.444067
4.1665824,109.731833
4.18658242,116.812923
4.19658243,120.62973
4.21158244,126.737353
4.22658246,133.348887
4.24158247,140.521559
4.25658249,148.320948
4.2715825,156.822492
4.28658252,166.113317
4.30158253,176.294467
4.31658255,187.483654
4.32658256,195.570227
4.33658257,204.212174
4.35158259,218.332003
4.36158259,228.604055
4.37158261,239.643001
4.38658262,257.813165
4.39658263,271.134207
4.40658264,285.544044
4.41658265,301.164314
4.42658266,318.134021
4.43658267,336.612571
4.44408268,351.571012
4.45408269,373.14851
4.4640827,396.81131
4.47408271,422.835185
4.48408272,451.542564
4.49408273,483.312228
4.49908273,500.482105
4.50658274,528.019634
4.51158275,547.669487
4.51658275,568.443608
4.52158275,590.428384
4.52908276,625.885228
4.53648963,664.138199
4.54158278,692.514524
4.54658278,722.176605
4.55408279,770.364838
4.55908279,805.208786
4.5665828,862.050962
4.57158281,903.328937
4.57908281,970.974355
4.58408282,1020.32875
4.59158282,1101.61452
4.59408283,1130.84209
4.59908283,1192.83007
4.60158283,1225.71433
4.60658284,1295.60319
4.60908284,1332.75702
4.61408285,1411.89393
4.61658285,1454.05774
4.62158285,1544.07435
4.62658286,1642.42214
4.63158286,1750.10785
4.63533287,1837.68759
4.64033287,1964.5902
4.64408288,2068.16662
4.64908288,2218.798
4.65408289,2385.48389
4.65908289,2570.38604
4.66158289,2670.43214
4.6640829,2775.99399
4.6665829,2887.44162
4.6690829,3005.17148
4.67158291,3129.60793
4.67408291,3261.20466
4.67658291,3400.44605
4.67908291,3547.84824
4.68158291,3703.95994
4.68408292,3869.36289
4.68658292,4044.6716
4.68908292,4230.53246
4.69158292,4427.62174
4.69533293,4745.85239
4.69783293,4974.13269
4.70158293,5342.5961
4.70533294,5744.51385
4.70908294,6182.22824
4.71283295,6657.7591
4.71533295,6996.53369
4.71758295,7316.54678
4.72058295,7765.47613
4.72258296,8078.63887
4.72658296,8736.52361
4.73258297,9790.56931
4.74358298,11801.9992
4.74758298,12489.2163
4.75058298,12960.537
4.75258299,13245.9171
4.75458299,13503.3156
4.75658299,13728.6787
4.75858299,13918.2488
4.76058299,14068.7092
4.762583,14177.3204
4.764583,14242.0407
4.766483,14261.7216
4.769583,14205.7026
4.77158301,14112.5624
4.77358301,13976.6164
4.77558301,13800.3246
4.77758301,13586.7805
4.77958301,13339.5805
4.78158301,13062.6814
4.78458302,12600.7991
4.78858302,11920.2666
4.80058303,9717.80129
4.80658304,8660.59096
4.81058304,8001.69964
4.81258305,7688.30155
4.81658305,7095.34354
4.81908305,6747.97547
4.82158305,6418.36591
4.82533306,5956.46745
4.82908306,5531.99051
4.83283307,5142.7237
4.83658307,4786.21315
4.83908307,4565.48499
4.84283308,4257.9432
4.84533308,4067.55572
4.84908308,3802.19527
4.85158308,3637.80781
4.85408309,3482.70953
4.85658309,3336.31535
4.86033309,3131.84695
4.8628331,3004.87235
4.8653331,2884.81433
4.8678331,2771.23267
4.87158311,2612.11126
4.87408311,2512.98077
4.87908311,2329.85802
4.88408312,2164.88075
4.88908312,2015.88669
4.89408313,1880.99976
4.89658313,1818.3288
4.90158314,1701.61652
4.90658314,1595.32978
4.91158314,1498.31831
4.91408315,1452.97194
4.91908315,1368.03115
4.92158315,1328.23156
4.92658316,1253.50894
4.92908316,1218.41717
4.93408317,1152.38925
4.93658317,1121.31361
4.94158317,1062.72121
4.94408318,1035.08854
4.95158318,958.218578
4.95908319,889.430864
4.9665832,827.656617
4.9715832,789.91892
4.97908321,737.898841
4.98408322,705.980295
4.99158322,661.799623
4.99658323,634.582461
5.00408324,596.766762
5.00908324,573.385226
5.01658325,540.78615
5.02158325,520.56227
5.02658326,501.444576
5.03158327,483.355043
5.04158327,449.981045
5.05158328,419.938058
5.0615833,392.802634
5.0715833,368.215878
5.08158331,345.872094
5.09158333,325.509686
5.10158333,306.903798
5.11158334,289.860341
5.12158335,274.211115
5.12658336,266.862853
5.13658337,253.036544
5.14658338,240.272622
5.16158339,222.892786
5.17658341,207.367456
5.19158343,193.444858
5.20658344,180.914338
5.22158345,169.598599
5.23658347,159.347583
5.25158348,150.033621
5.2665835,141.54756
5.28158351,133.795645
5.29658353,126.696989
5.30658354,122.292481
5.32658356,114.18832
5.33658357,110.456444
5.35658359,103.562525
5.37658361,97.3474417
5.38658362,94.467703
5.40658364,89.1174669
5.43158366,83.1145524
5.45658369,77.7725406
5.47908371,73.45525
5.50408374,69.1338574
5.52908376,65.2514781
5.55408379,61.7540725
5.57908381,58.5957931
5.59158382,57.1313795
5.61658385,54.41029
5.64158388,51.9408281
5.6665839,49.6962497
5.67908391,48.6509371
5.71658395,45.7922549
5.73497373,44.5288961
5.75604724,43.1823964
5.77908401,41.8247299
5.80408404,40.4754423
5.84158408,38.6705627
5.8665841,37.5996489
5.89158412,36.6251005
5.92908416,35.3287173
5.9665842,34.2129533
5.99158422,33.5609477
6.01658425,32.9773354
6.0665843,32.0007349
6.09745704,31.5160553
6.12078705,31.2061706
6.16744709,30.7250335
6.21410712,30.4205571
6.26076716,30.286043
6.30742719,30.3181231
6.35408723,30.5166224
6.40074726,30.8845508
6.4474073,31.4282242
6.49406733,32.1575218
6.51739735,32.5959393
6.56405739,33.631053
6.5873874,34.2329877
6.61071742,34.8952584
6.65737746,36.4154987
6.68070747,37.281987
6.7157025,38.7287531
6.74603152,40.1389895
6.78335955,42.0976235
6.82068758,44.3341534
6.85801561,46.8894882
6.88601163,49.0448157
6.90467564,50.6090123
6.92333966,52.2847973
6.94200367,54.0815745
6.96066768,56.0098256
6.9793317,58.0812592
6.99799571,60.3089849
7.02599173,63.9763059
7.04465575,66.6632498
7.06331976,69.5666951
7.08198378,72.7091792
7.10064779,76.1163443
7.1193118,79.8174742
7.13797582,83.8461494
7.15197383,87.1056604
7.17063784,91.8042624
7.18930186,96.9522766
7.20796587,102.60854
7.22662988,108.842603
7.2452939,115.737624
7.26395791,123.394581
7.28262193,131.938675
7.29195393,136.5915
7.30128594,141.529268
7.31061795,146.779535
7.31994995,152.373585
7.32928196,158.345791
7.33954717,165.393014
7.35074558,173.689586
7.36194399,182.614148
7.3750088,193.699775
7.38994001,207.095181
7.40207162,218.729194
7.41420323,231.41464
7.42540163,244.326172
7.43660004,258.571737
7.44826505,274.994024
7.45526406,285.698691
7.46226306,297.097841
7.47392807,317.785257
7.48092708,331.311198
7.48792608,345.758275
7.49259208,355.940723
7.49959109,372.106499
7.50659009,389.430162
7.5135891,408.021039
7.5205881,428.002045
7.52758711,449.511619
7.53458612,472.705996
7.54391812,506.561439
7.55091713,534.415783
7.55791613,564.642802
7.56491514,597.514194
7.56958114,621.049365
7.57424715,646.000419
7.58124615,686.333027
7.58591215,715.345356
7.5899176,741.73282
7.59754204,796.127981
7.602625,835.746629
7.60770796,878.357369
7.6153324,948.550375
7.62041536,1000.03779
7.62549832,1055.74348
7.63058128,1116.12425
7.63566424,1181.69768
7.6407472,1253.05159
7.64583016,1330.85498
7.65091312,1415.87096
7.65599608,1508.97181
7.66107904,1611.15656
7.66362052,1666.00725
7.66743274,1753.42404
7.6725157,1880.50216
7.67505718,1948.98819
7.6788694,2058.5087
7.68141088,2136.39718
7.6852231,2261.19241
7.68776458,2350.11176
7.6915768,2492.84969
7.69411828,2594.74055
7.6979305,2758.59566
7.70174272,2936.88395
7.70555494,3131.09364
7.70936716,3342.85596
7.71317938,3573.94684
7.7169916,3826.28168
7.72080382,4101.89994
7.72461604,4402.93452
7.72715752,4618.81854
7.729699,4847.60406
7.73224048,5089.90686
7.73478196,5346.30068
7.73732344,5617.29256
7.73986492,5903.29214
7.74443958,6456.6735
7.74748936,6853.1275
7.75053914,7270.87493
7.75257232,7560.51654
7.75663869,8163.43744
7.77087098,10373.6862
7.77493734,10958.1115
7.77798712,11353.6577
7.7800203,11590.138
7.78205349,11800.6323
7.78408667,11981.7344
7.78611986,12130.3562
7.78815304,12243.8516
7.79018622,12320.1281
7.793236,12361.7911
7.79628578,12314.8027
7.79831896,12235.0373
7.80035214,12118.1427
7.80238533,11966.243
7.80441851,11782.0123
7.8064517,11568.5619
7.80848488,11329.3165
7.81153466,10930.0083
7.81560102,10341.3195
7.82780013,8434.46318
7.83389968,7518.56138
7.83796605,6947.58596
7.83999923,6675.96577
7.8440656,6161.98573
7.84660708,5860.84423
7.84914856,5575.07019
7.85296078,5174.55442
7.856773,4806.43832
7.86058522,4468.81452
7.86439744,4159.56371
7.86693892,3968.0768
7.87075114,3701.25165
7.87329262,3536.05474
7.87710484,3305.7837
7.87964632,3163.12074
7.8821878,3028.50977
7.88472928,2901.44421
7.8885415,2723.95664
7.89108298,2613.72756
7.89362446,2509.49574
7.89616594,2410.87985
7.89997816,2272.71302
7.90251964,2186.62966
7.9076026,2027.59293
7.91268556,1884.29592
7.91776852,1754.8645
7.92285148,1637.67243
7.92539296,1583.21736
7.93047592,1481.79552
7.93555888,1389.42108
7.94064184,1305.09655
7.94318332,1265.67649
7.94826628,1191.82917
7.95080776,1157.22396
7.95589072,1092.24707
7.9584322,1061.729
7.96351516,1004.30097
7.96605664,977.269983
7.9711396,926.298377
7.97368108,902.257196
7.98130552,835.368829
7.98892996,775.500318
7.9965544,721.724091
8.00163736,688.866221
8.0092618,643.564301
8.01434476,615.762531
8.0219692,577.272697
8.02705216,553.556601
8.0346766,520.598672
8.03975956,500.216492
8.047384,471.793251
8.05246696,454.156197
8.05754992,437.480936
8.06263288,421.699689
8.0727988,392.576509
8.08296472,366.350339
8.09313064,342.65325
8.10329656,321.173365
8.11346248,301.645005
8.1236284,283.840791
8.13379432,267.565255
8.14396024,252.649654
8.15412616,238.947739
8.15920912,232.51149
8.16937504,220.396667
8.17954096,209.20693
8.19478984,193.960328
8.21003872,180.328993
8.2252876,168.093841
8.24053648,157.071537
8.25578536,147.107744
8.27103424,138.071813
8.28628312,129.852568
8.301532,122.354936
8.31678088,115.497235
8.33202976,109.208984
8.34219568,105.30268
8.36252752,98.1045039
8.37269344,94.7845343
8.39302528,88.6412766
8.41335712,83.0896416
8.42352304,80.5123276
8.44385488,75.7142283
8.46164524,71.8690579
8.48451856,67.3538904
8.5048504,63.699938
8.5302652,59.5505734
8.55568,55.8091935
8.5810948,52.4242889
8.6065096,49.3522232
8.619217,47.9216712
8.6446318,45.2508975
8.6573392,44.0033197
8.682754,41.6673315
8.6954614,40.5730264
8.7208762,38.5185493
8.7335836,37.5536096
8.7717058,34.8825788
8.809828,32.5089083
8.8479502,30.3906074
8.8860724,28.4928711
8.9114872,27.3357052
8.9496094,25.7433742
8.9750242,24.7680379
9.0131464,23.4203265
9.0385612,22.5915613
9.0766834,21.4422176
9.1020982,20.7330035
9.14033666,19.7434722
9.1656352,19.1357085
9.2164648,18.0158561
9.2418796,17.5020745
9.2927092,16.5568264
9.3435388,15.70994
9.3689536,15.3196301
9.4197832,14.5988075
9.4706128,13.9502488
9.4960276,13.6505899
9.5468572,13.0962039
9.5976868,12.5967199
9.6231016,12.3658955
9.6739312,11.9391645
9.7247608,11.5555911
9.7755904,11.2116096
9.8518348,10.7633272
9.9026644,10.505957
9.953494,10.2793651
10.0043236,10.0818686
10.0557882,9.91013851
10.1244692,9.72329292
10.1921384,9.58484674
10.2422142,9.51089762
10.3173281,9.44504408
10.392442,9.43371159
10.4675558,9.4785041
10.5176317,9.54093168
10.5927456,9.68649998
10.6428215,9.82056692
10.7179353,10.0825454
10.7680112,10.3017481
10.8180871,10.5604959
10.8431251,10.7059508
10.893201,11.0319529
10.9432769,11.409326
10.9933527,11.8445286
11.0434287,12.3453369
11.0684666,12.6232071
11.1185425,13.2406616
11.1686184,13.9511646
11.1936564,14.3460113
11.2312133,14.9940376
11.2562512,15.4669859
11.2812892,15.9760832
11.3063271,16.5246396
11.3313651,17.1163697
11.356403,17.7554525
11.381441,18.446602
11.4064789,19.1951511
11.4440359,20.4390607
11.4690738,21.3594504
11.5019466,22.6946882
11.5316687,24.0431531
11.5567066,25.2980849
11.5817446,26.6764878
11.6067825,28.1945534
11.6318205,29.8712367
11.6443395,30.7758801
11.6693774,32.7335509
11.6969191,35.1450253
11.7119419,36.5899169
11.7294685,38.4056282
11.7394837,39.5116652
11.759514,41.8886473
11.7695292,43.1668887
11.7895596,45.9234669
11.7995747,47.4111213
11.8196051,50.6316217
11.8396355,54.2201419
11.8546582,57.1873784
11.869681,60.4224696
11.8847038,63.9583979
11.8997265,67.8333709
11.9097417,70.6267039
11.9197569,73.6052924
11.9347797,78.4574446
11.9447949,81.9762126
11.95481,85.7474053
11.9648252,89.7955939
11.9748404,94.1483995
11.9848556,98.836956
11.9948708,103.896457
12.0048859,109.366805
12.0149011,115.293379
12.0249163,121.72796
12.0324277,126.922621
12.0449466,136.367122
12.0549618,144.718404
12.064977,153.874674
12.0749922,163.941754
12.0850074,175.04325
12.090015,181.02628
12.0975263,190.598159
12.1025339,197.410765
12.1100453,208.339923
12.1150529,216.140642
12.1213124,226.525564
12.1275719,237.678934
12.1325795,247.206029
12.1375871,257.317273
12.1450985,273.685611
12.150106,285.477896
12.1576174,304.640123
12.1651288,325.78336
12.1726402,349.183987
12.1801516,375.166978
12.187663,404.116179
12.1914187,419.842241
12.1951744,436.487091
12.19893,454.121483
12.2026857,472.822863
12.2064414,492.67611
12.2101971,513.774361
12.2139528,536.219948
12.2189604,568.439452
12.2227161,594.486554
12.2277237,631.994853
12.2314794,662.416062
12.236487,706.370743
12.2402427,742.142502
12.2452502,794.011078
12.2502578,851.211233
12.2552654,914.443321
12.260273,984.514007
12.2627768,1022.39897
12.2665325,1083.14805
12.2690363,1126.46714
12.2715401,1172.2196
12.2740439,1220.56982
12.2777996,1298.35411
12.2803034,1353.99497
12.2828072,1412.9032
12.285311,1475.29889
12.2890667,1575.94558
12.2915705,1648.10984
12.2953262,1764.61978
12.2990818,1891.88853
12.3028375,2030.90284
12.3065932,2182.6688
12.309097,2291.42026
12.3116008,2406.55625
12.3153565,2591.77297
12.3178603,2723.88742
12.3203641,2863.07001
12.3243702,3100.53652
12.3293778,3422.16822
12.3343854,3768.23018
12.3484066,4790.16818
12.3524127,5060.56805
12.3554172,5243.65875
12.3574203,5353.16835
12.3594233,5450.68983
12.3614263,5534.64769
12.3634294,5603.61309
12.3654324,5656.36076
12.3674354,5691.92101
12.3705402,5711.60955
12.372443,5702.04065
12.3744461,5674.36285
12.3764491,5629.14249
12.3784521,5567.21364
12.3804552,5489.68802
12.3824582,5397.90662
12.3844613,5293.38467
12.3864643,5177.75364
12.3894688,4987.17951
12.3934749,4709.90919
12.4044916,3900.79274
12.4084977,3615.52993
12.4125038,3343.83021
12.4165098,3088.52293
12.4205159,2851.04749
12.4242716,2644.98987
12.4280273,2454.74555
12.431783,2279.71618
12.4355387,2119.07514
12.4380425,2019.5071
12.4405463,1925.61409
12.4430501,1837.09551
12.4455538,1753.65294
12.4480576,1674.99408
12.4505614,1600.83559
12.4530652,1530.90504
12.455569,1464.94223
12.4580728,1402.69992
12.4605766,1343.94422
12.4630804,1288.45458
12.4655842,1236.02368
12.468088,1186.45699
12.4718437,1117.08225
12.4743475,1073.90509
12.4768513,1033.00523
12.480607,975.614589
12.4856146,905.806558
12.4881184,873.515962
12.493126,813.639734
12.4956298,785.866481
12.5006373,734.227652
12.5031411,710.210212
12.5081487,665.437218
12.5106525,644.55838
12.5156601,605.537825
12.5181639,587.295632
12.5231715,553.120193
12.5256753,537.10469
12.5306829,507.031647
12.5356905,479.347128
12.5381943,466.324867
12.5432019,441.78472
