energy [eV],cross section [b]
1e-05,129.935746
1.09723333e-05,124.044968
1.19446666e-05,118.888989
1.30010382e-05,113.956639
1.38173372e-05,110.53924
1.46336362e-05,107.411932
1.58580847e-05,103.181846
1.68860409e-05,99.9918819
1.79139971e-05,97.0805914
1.89419534e-05,94.4096276
1.99699096e-05,91.9476469
2.19116504e-05,87.7791011
2.32061442e-05,85.2957091
2.45006381e-05,83.0118292
2.67780267e-05,79.4034554
2.92232392e-05,76.0089121
3.16684518e-05,73.0155371
3.37212711e-05,70.7581936
3.68005e-05,67.7332405
3.9879729e-05,65.0657773
4.24648215e-05,63.0542083
4.5049914e-05,61.2183687
4.89275528e-05,58.7424423
5.18477881e-05,57.0641873
5.51031664e-05,55.3529135
5.83585446e-05,53.7869037
6.16139228e-05,52.3467049
6.52913428e-05,50.8511746
6.93908044e-05,49.3262204
7.55399967e-05,47.2759577
8.22206615e-05,45.3146209
8.99642711e-05,43.320536
9.77078806e-05,41.5684737
0.000103539564,40.3808749
0.000110040525,39.1699106
0.000119791967,37.5417996
0.000130386221,35.9843044
0.000138572809,34.9051873
0.000146759397,33.9176728
0.000154945985,33.0094938
0.000164193918,32.0664231
0.000174503197,31.104798
0.000184812476,30.224802
0.000195121754,29.4155036
0.000213258754,28.1368677
0.000232732294,26.9340032
0.000252205835,25.8732938
0.000276728647,24.7003035
0.00030125146,23.6736289
0.00032789377,22.6914842
0.000348481307,22.0110012
0.000369068843,21.3882821
0.000399950148,20.5459746
0.000425875804,19.9107795
0.00045180146,19.3310747
0.000477727116,18.7992246
0.000503652772,18.3089879
0.000552624607,17.4789352
0.000585272497,16.9844353
0.000617920387,16.5296628
0.000675357457,15.8111536
0.000737027144,15.1352232
0.000798696831,14.5391747
0.000850470132,14.0896868
0.000928130083,13.4873508
0.00100579003,12.9561993
0.00107098757,12.5556512
0.00113618512,12.1900948
0.00123398143,11.6970832
0.00130763147,11.3629058
0.00138973401,11.0221537
0.00147183655,10.710327
0.00155393908,10.4235522
0.00164668576,10.1257598
0.00175007657,9.82210868
0.00190516279,9.41385765
0.00207365306,9.02331402
0.00226895141,8.62625001
0.00246424976,8.27737813
0.00269330724,7.91758648
0.00285726526,7.68707148
0.0031032023,7.37618513
0.00339165184,7.05556808
0.00359812236,6.85015191
0.00380459288,6.66169308
0.0040110634,6.48797996
0.00427106942,6.28740792
0.00453107545,6.10435801
0.00479108148,5.93641912
0.00505108751,5.78162045
0.00554222156,5.51952095
0.0060333556,5.2901157
0.00656693818,5.07066109
0.00718541782,4.84754308
0.00780389747,4.65150568
0.00852928703,4.44933283
0.00904851672,4.31980299
0.00982736125,4.14511176
0.0104139062,4.02670146
0.0110677664,3.90596195
0.0117216265,3.79547203
0.0123754867,3.69385912
0.0131141162,3.58834275
0.0143492144,3.43046229
0.0151726133,3.33609727
0.0159960121,3.24911605
0.0175513576,3.10184333
0.0191067031,2.97294222
0.0207881501,2.85020364
0.0227218,2.72626194
0.02465545,2.61720424
0.0261887715,2.53945541
0.0278330915,2.46332548
0.0302995716,2.36097196
0.0319438916,2.29942649
0.0340145655,2.22836576
0.0360852395,2.16351368
0.0381559134,2.10401589
0.0402265873,2.04917406
0.0428341639,1.98585358
0.0467455289,1.90100266
0.0506568938,1.82618124
0.0555824322,1.74344187
0.0605079706,1.67102536
0.0658592214,1.60175194
0.0699943385,1.55375697
0.0761970142,1.48923096
0.0829357847,1.42750609
0.0881430917,1.38474132
0.0933503987,1.34560797
0.101161359,1.29267718
0.107718863,1.25276315
0.114276367,1.21633745
0.12083387,1.18292005
0.127391374,1.15211855
0.139778061,1.09996947
0.152164749,1.05432882
0.165622013,1.01067122
0.18122043,0.966288655
0.196818847,0.927296583
0.215113596,0.887088215
0.228208871,0.861329601
0.247851785,0.826593462
0.26264479,0.803050834
0.279135525,0.779047352
0.303871627,0.746779395
0.320362362,0.727378848
0.341128961,0.704981228
0.361895561,0.684542911
0.38266216,0.665794222
0.416504332,0.638305322
0.455731053,0.610363868
0.494957774,0.585819766
0.540965196,0.560514218
0.590362969,0.536715484
0.639760742,0.515735916
0.681231453,0.49991957
0.722702163,0.485488779
0.784908229,0.466032989
0.857867189,0.445976964
0.910090794,0.433132517
0.962314398,0.421352401
1.014538,0.410497713
1.11318491,0.392127948
1.17894951,0.381190255
1.24471412,0.37113569
1.36041305,0.355259737
1.484638,0.340336674
1.60886296,0.327188365
1.76529806,0.312662221
1.86958812,0.30401623
2.02602322,0.292332036
2.15735454,0.283529834
2.35435152,0.271748206
2.5513485,0.261373773
2.71673257,0.253560724
2.88211664,0.246438987
3.04750071,0.23991328
3.21288478,0.233905732
3.4211511,0.226979263
3.73355058,0.217716227
3.9418169,0.212174121
4.17708379,0.206429417
4.57048498,0.197855872
4.96388617,0.190347958
5.42529039,0.18263372
5.75556088,0.177708867
6.25096662,0.17109195
6.83200783,0.164302656
7.24791378,0.159974233
7.87177272,0.154167319
8.34159857,0.150253995
8.86534432,0.146285276
9.38909006,0.142674918
9.91283581,0.139374937
10.5044823,0.135971292
11.4938031,0.130929068
12.1533502,0.127948676
12.8128974,0.125226919
14.0587381,0.120682902
15.3045788,0.116784426
16.6580969,0.113138823
18.2269702,0.109534985
19.7958435,0.106473264
21.635911,0.103442671
22.9530208,0.101583155
24.9286855,0.0991992343
26.4165512,0.097679924
28.0751729,0.0962271738
30.5631054,0.0944598522
32.2217271,0.0935213952
34.310411,0.092579418
36.3990948,0.0918781754
38.4877786,0.0913952542
41.8915906,0.0910328938
45.8369751,0.0912140618
49.7823596,0.0919964323
54.4097403,0.0936560456
57.7219928,0.0953407093
59.378119,0.0963436301
62.6903716,0.0986860502
65.1325606,0.100716727
67.4907489,0.102940186
69.0628745,0.104575463
71.84825,0.107797443
74.27475,0.110973735
76.70125,0.114534346
79.12775,0.118529153
80.341,0.120709634
82.7675,0.125493715
84.3034745,0.128863954
86.1646,0.133402187
87.397262,0.136775464
88.5911,0.140458079
89.80435,0.144897584
90.6803165,0.148922563
91.342751,0.152872229
91.6460635,0.155136606
91.910552,0.15747434
92.13379,0.159812695
92.42497,0.163582539
92.61909,0.166742421
92.81321,0.170652822
93.00733,0.17563488
93.15292,0.180373319
93.29851,0.186332524
93.39557,0.191225508
93.468365,0.195524526
93.54116,0.200494778
93.613955,0.206292357
93.68675,0.21312156
93.759545,0.221253919
93.83234,0.231056611
93.88087,0.23876216
93.9294,0.247628278
93.953665,0.252572337
94.002195,0.263670676
94.0385925,0.273236267
94.0628575,0.280309455
94.0871225,0.28801835
94.1113875,0.296442373
94.147785,0.310625122
94.17205,0.321274874
94.196315,0.333036871
94.22058,0.346072769
94.244845,0.36057469
94.2569775,0.3684455
94.2812425,0.385591437
94.293375,0.394942416
94.31764,0.415420128
94.3297725,0.426648973
94.3540375,0.451385185
94.36617,0.465032624
94.3843688,0.487332279
94.4025675,0.512116227
94.4207663,0.539768596
94.438965,0.570750709
94.4571638,0.60562047
94.4753625,0.645057673
94.4935612,0.689897403
94.5056938,0.723293139
94.5178263,0.759912487
94.5299588,0.800184404
94.536025,0.82184389
94.5481575,0.86856452
94.5542238,0.893786353
94.5663563,0.948410205
94.5724225,0.978020742
94.584555,1.04243645
94.5936544,1.09584065
94.6027538,1.15421159
94.6118531,1.21818473
94.6179194,1.26430648
94.6239856,1.31349409
94.633085,1.39364028
94.6421844,1.48239516
94.6512838,1.58103657
94.65735,1.65303073
94.6634163,1.73061384
94.6725156,1.85878752
94.6755488,1.90500119
94.681615,2.00324816
94.6846481,2.05550096
94.6907144,2.16687383
94.6967806,2.28832133
94.7028469,2.42109473
94.70588,2.49217338
94.7119463,2.64473026
94.7180125,2.81270626
94.7240788,2.99824808
94.730145,3.20388875
94.734998,3.38487377
94.7404576,3.60839699
94.7434908,3.74272739
94.7471305,3.91450932
94.7519835,4.16338573
94.75441,4.29717448
94.759263,4.58560733
94.7616895,4.74122619
94.7665425,5.07803747
94.768969,5.26049059
94.7726088,5.55373362
94.7750353,5.76344815
94.778675,6.10161692
94.7823148,6.47120731
94.7859545,6.87622035
94.7895942,7.32131202
94.793234,7.81192556
94.7968738,8.35445597
94.8005135,8.95645582
94.8041533,9.62689459
94.807793,10.3764879
94.8090063,10.6460969
94.8114327,11.2181192
94.8138593,11.8379085
94.8162858,12.510895
94.8181056,13.0542527
94.8199255,13.6339707
94.822352,14.469229
94.8247785,15.3838874
94.827205,16.3882366
94.8296315,17.4942713
94.832058,18.7160362
94.8344845,20.0700557
94.836911,21.5758707
94.8381242,22.3927953
94.8393375,23.2567129
94.8405508,24.1712443
94.841764,25.14036
94.8429773,26.1684209
94.8447971,27.8316612
94.8460104,29.0291597
94.8472236,30.3046665
94.8484369,31.6649704
94.8502567,33.8811113
94.85147,35.4881924
94.8532899,38.1178843
94.8545031,40.0335148
94.856323,43.1832127
94.8575363,45.4890696
94.8581429,46.7101433
94.8593561,49.3004634
94.8599628,50.674916
94.861176,53.596692
94.8617826,55.1502904
94.8629959,58.4601699
94.8636025,60.2240526
94.8648158,63.9906674
94.8654224,66.0026539
94.8666356,70.3095685
94.8672423,72.615817
94.8684555,77.5652614
94.8690621,80.2223651
94.8702754,85.939944
94.870882,89.0175679
94.8720953,95.6581574
94.8733085,103.017832
94.8739151,106.997338
94.8745217,111.19441
94.8751284,115.623606
94.875735,120.300539
94.8763416,125.24194
94.8769483,130.465721
94.8775549,135.991039
94.8781615,141.838352
94.8787681,148.029466
94.8793748,154.587571
94.8799814,161.537261
94.880588,168.904527
94.8811946,176.716722
94.8818013,185.002477
94.8824079,193.791565
94.8833178,207.986303
94.8839244,218.169346
94.8848344,234.602276
94.885441,246.374213
94.8863509,265.327187
94.8872609,285.903826
94.8883528,312.808382
94.8893234,338.749505
94.890294,366.50243
94.8917499,411.001472
94.8944191,496.065169
94.8953897,525.192378
94.8961176,545.200776
94.8966029,557.334193
94.8970882,568.295518
94.8975735,577.913216
94.8980588,586.028061
94.8985441,592.499231
94.8990294,597.2101
94.8995147,600.073323
94.9,601.034798
94.900728,598.881161
94.9012133,595.088019
94.9016986,589.486903
94.9021839,582.180351
94.9026692,573.297757
94.9031545,562.989879
94.9036398,551.422848
94.9043677,532.096201
94.9053383,503.572202
94.9082501,411.035631
94.909706,366.538455
94.9106766,338.786251
94.9111619,325.581041
94.9121325,300.587816
94.9127391,285.941064
94.9133458,272.039577
94.9142557,252.552906
94.9148623,240.440866
94.9154689,229.001487
94.9163789,213.039189
94.9172888,198.419867
94.9181988,185.037326
94.9191087,172.78747
94.9197153,165.200809
94.9206253,154.620703
94.9212319,148.062155
94.9221418,138.905137
94.9227484,133.221017
94.9236584,125.272855
94.924265,120.331018
94.9248716,115.653653
94.9254783,111.224031
94.9260849,107.026539
94.9266915,103.046618
94.9279048,95.6861355
94.929118,89.0447668
94.9303313,83.0376174
94.9315445,77.5909907
94.9327578,72.6408561
94.933971,68.1315095
94.9351843,64.0144123
94.9363975,60.2471918
94.9370041,58.4830161
94.9382174,55.1725697
94.938824,53.6186971
94.9400373,50.6963906
94.9406439,49.3216813
94.9418571,46.7308644
94.9424638,45.5095503
94.9442836,42.1138782
94.9461035,39.0775698
94.9479234,36.3527483
94.9497433,33.8990733
94.9515631,31.6823944
94.953383,29.6736713
94.9545963,28.4376528
94.9564161,26.7221723
94.9576294,25.6625765
94.9594493,24.1866689
94.9606625,23.2718709
94.9624824,21.9934481
94.9636956,21.1985179
94.9655155,20.0842374
94.9667288,19.3893288
94.9691553,18.1032514
94.9715818,16.9408529
94.9740082,15.8869063
94.9764348,14.9284375
94.9788612,14.054341
94.9818944,13.065949
94.9837142,12.5223734
94.9861408,11.8491105
94.9885673,11.2290599
94.9909938,10.6567903
94.9934203,10.1275423
94.9958467,9.63713145
94.9994865,8.96638016
95.001913,8.55783271
95.0043395,8.17694687
95.0079793,7.65223664
95.0104058,7.33042707
95.0128323,7.0288375
95.016472,6.61079514
95.0201118,6.22966328
95.0237515,5.88123436
95.0273912,5.56188198
95.031031,5.26846742
95.035884,4.91293282
95.0383105,4.74889032
95.0431635,4.44523511
95.04559,4.30456151
95.050443,4.04318252
95.0528695,3.92164992
95.0565093,3.74975497
95.0595424,3.61533514
95.0631821,3.46374786
95.0674285,3.29915189
95.069855,3.21055199
95.0759213,3.00476838
95.0819875,2.81909585
95.0880538,2.65100021
95.09412,2.49833372
95.1001863,2.35926659
95.1062525,2.23223213
95.1092856,2.1727985
95.1153519,2.06134476
95.1214181,1.95888907
95.1305175,1.82004921
95.1396169,1.69667094
95.1487163,1.58654288
95.1578156,1.48783506
95.166915,1.39902266
95.1760144,1.31882696
95.1851137,1.2461692
95.1942131,1.18013424
95.2033125,1.11994162
95.215445,1.0476306
95.2215113,1.01450113
95.2336437,0.953573621
95.23971,0.92552535
95.2518425,0.873713726
95.263975,0.826991584
95.2700413,0.805333497
95.2852069,0.755591464
95.3003725,0.711391645
95.312505,0.679484571
95.3185712,0.664561261
95.33677,0.623461968
95.3489025,0.598795973
95.3671012,0.565339976
95.3792337,0.545123451
95.3974325,0.517529746
95.409565,0.500755444
95.4216975,0.485139514
95.4398963,0.463663269
95.458095,0.444257714
95.4702275,0.432342414
95.4944925,0.410668893
95.506625,0.40079729
95.53089,0.382741152
95.555155,0.366661731
95.5672875,0.359274763
95.5915525,0.345656005
95.62795,0.327738603
95.6643475,0.312335985
95.6886125,0.303240087
95.72501,0.291084822
95.7614075,0.28045312
95.797805,0.271103198
95.82207,0.265483829
95.8706,0.255502072
95.894865,0.251059352
95.943395,0.24310375
96.01619,0.233101383
96.088985,0.224927172
96.1496475,0.219213269
96.186045,0.21618147
96.25884,0.210864857
96.3680325,0.204398419
96.45296,0.200342787
96.55002,0.196513456
96.64708,0.19336609
96.74414,0.190761468
96.88973,0.187648664
96.98679,0.185991766
97.18091,0.183436029
97.47209,0.180955835
97.66621,0.179925181
97.889448,0.179172136
98.253423,0.178648815
98.661075,0.178764541
98.9510418,0.179155691
99.4509008,0.180247711
99.99565,0.181864457
101.303534,0.186888634
102.827982,0.19405623
104.479064,0.203001895
106.183225,0.213423702
107.942438,0.225500734
109.686484,0.238933021
111.278875,0.252632602
112.947094,0.268667986
114.463656,0.284963966
115.221937,0.293803835
116.131875,0.305085079
116.890156,0.31509366
117.800094,0.327898826
118.710031,0.341651595
119.539062,0.355087149
120.287188,0.368022221
121.222344,0.385378182
122.1575,0.404191377
123.092656,0.424630432
123.840781,0.442281688
124.588906,0.461209998
125.3145,0.480908238
125.9725,0.500022437
126.67875,0.52199064
127.52975,0.550671154
128.250844,0.577075932
129.019,0.607577408
129.65725,0.634988713
130.50825,0.674811723
131.35925,0.718866033
132.21025,0.767777714
133.06125,0.822293494
133.48675,0.85192625
133.91225,0.883309799
134.33775,0.916585736
134.76325,0.951910301
135.18875,0.989456237
135.61425,1.02941493
136.03975,1.07199887
136.46525,1.11744453
136.89075,1.16601565
137.31625,1.21800716
137.74175,1.27374964
138.16725,1.33361469
138.59275,1.39802116
139.01825,1.46744255
139.44375,1.54241578
139.86925,1.62355172
140.29475,1.71154769
140.5075,1.75836341
140.933,1.85818404
141.3585,1.96709352
141.57125,2.02530655
141.890375,2.11776816
142.315875,2.25158779
142.528625,2.32346186
142.84775,2.43810981
143.0605,2.51946592
143.379625,2.64958356
143.5711,2.73268916
143.8264,2.84988828
144.0817,2.97499525
144.337,3.10873903
144.6774,3.30192145
144.9327,3.45915878
145.188,3.6281571
145.4433,3.81012025
145.6986,4.00640986
146.039,4.29311535
146.2943,4.52921582
146.4645,4.69779141
146.6347,4.87611137
146.89,5.16355668
147.0602,5.36975532
147.2304,5.58873192
147.4857,5.94354165
147.6559,6.19942972
147.8261,6.47240253
147.9963,6.76401212
148.1665,7.07599016
148.3367,7.41027337
148.5069,7.76903317
148.6771,8.15471049
148.8473,8.57005674
149.0175,9.01818205
149.1026,9.25562076
149.2728,9.75967454
149.443,10.3062555
149.65575,11.0568083
149.8685,11.8926842
150.0387,12.631699
150.2089,13.4418507
150.294,13.8764676
150.4642,14.8113396
150.5493,15.314546
150.67695,16.1187069
150.76205,16.6904073
150.8897,17.6064761
150.9748,18.2595307
151.10245,19.3089961
151.2301,20.4509688
151.35775,21.6964875
151.44285,22.5905562
151.5705,24.0378475
151.69815,25.6271328
151.8258,27.3772436
151.95345,29.3101655
152.0811,31.4516755
152.20875,33.832129
152.29385,35.569315
152.37895,37.4407744
152.4215,38.4310971
152.5066,40.5303388
152.5917,42.801659
152.6768,45.2637093
152.71935,46.5727559
152.80445,49.3614097
152.88955,52.3991478
152.97465,55.7151437
153.05975,59.3427114
153.14485,63.3199724
153.22995,67.6906325
153.31505,72.5048869
153.40015,77.8204666
153.463975,82.1757656
153.5278,86.8819449
153.57035,90.2315822
153.634175,95.6028256
153.676725,99.4329981
153.74055,105.586216
153.7831,109.981901
153.846925,117.055946
153.889475,122.117762
153.9533,130.276343
154.017125,139.175361
154.08095,148.889272
154.144775,159.498043
154.2086,171.086328
154.272425,183.741936
154.314975,192.815714
154.357525,202.428817
154.42135,217.91221
154.4639,228.974613
154.50645,240.648962
154.58304,263.23501
154.61708,273.922327
154.68516,296.457407
154.7192,308.272502
154.78728,332.859748
155.02556,422.862984
155.09364,446.602282
155.1447,462.642926
155.17874,472.217734
155.21278,480.726202
155.24682,488.03025
155.28086,494.005068
155.33192,500.248048
155.36596,502.484605
155.396596,503.134865
155.43404,502.161622
155.46808,499.607186
155.50212,495.511118
155.53616,489.94873
155.5702,483.019536
155.60424,474.842945
155.63828,465.55337
155.67232,455.295129
155.72338,438.418119
155.77444,420.197942
155.97868,342.570496
156.0808,305.34023
156.14888,282.141994
156.21696,260.47047
156.251,250.233827
156.29355,238.004906
156.357375,220.829768
156.4212,205.014392
156.46375,195.193259
156.527575,181.485927
156.570125,172.993184
156.612675,164.986022
156.655225,157.437982
156.697775,150.32301
156.740325,143.61574
156.782875,137.291701
156.825425,131.327458
156.867975,125.700697
156.910525,120.390267
156.953075,115.3762
156.995625,110.639701
157.038175,106.163121
157.080725,101.929925
157.14455,96.0029128
157.1871,92.3127001
157.22965,88.8160517
157.31475,82.3556718
157.39985,76.5341697
157.4424,73.8388295
157.5275,68.8362875
157.57005,66.5137378
157.65515,62.1915447
157.6977,60.1794682
157.7828,56.4253347
157.82535,54.6731721
157.91045,51.3958348
157.953,49.8624119
158.0381,46.9873895
158.08065,45.6390264
158.16575,43.105251
158.2083,41.9142651
158.2934,39.6714197
158.33595,38.6149439
158.42105,36.6213603
158.5487,33.9014076
158.6338,32.249039
158.76145,29.9832005
158.84655,28.5999456
158.9742,26.6943728
159.0593,25.5258473
159.1444,24.4309895
159.2295,23.4038439
159.3146,22.4390343
159.3997,21.5316987
159.4848,20.6774324
159.5699,19.8722382
159.655,19.1124827
159.7401,18.394858
159.8252,17.7163477
159.9103,17.074197
160.0805,15.8891086
160.2507,14.8218572
160.4209,13.857486
160.506,13.4098406
160.6762,12.576615
160.8464,11.8179876
161.0166,11.1253899
161.1017,10.8015045
161.2719,10.1944277
161.357,9.90975158
161.4421,9.63674325
161.599858,9.15941437
161.745175,8.75021539
161.8676,8.42624908
162.1229,7.80569488
162.3782,7.25089349
162.6335,6.75293065
162.8888,6.30434594
163.059,6.02957845
163.3143,5.64981664
163.4845,5.41617574
163.7348,5.0979882
163.9,4.90307129
164.096328,4.68560368
164.342564,4.43269923
164.5888,4.19972675
164.720614,4.08248864
165.057472,3.80428421
165.262516,3.64866611
165.46756,3.50242862
165.672604,3.3648379
165.863002,3.24423652
166.17545,3.05998968
166.404904,2.93455746
166.595302,2.83628081
166.921176,2.67926318
167.2739,2.52370847
167.518,2.42395575
167.821905,2.30794349
168.155101,2.19024763
168.4944,2.07963443
168.821494,1.98100042
169.126619,1.89546105
169.392688,1.82559015
169.719782,1.74532679
170.00782,1.67953584
170.49602,1.57826398
170.88658,1.50735016
171.1795,1.46219461
171.4236,1.43366984
171.52124,1.42637769
171.61888,1.42306853
171.69211,1.42448877
171.76534,1.4309756
171.81416,1.43938436
171.86298,1.45247907
171.9118,1.47219353
171.96062,1.50159203
171.997235,1.5329395
172.021645,1.56003903
172.03385,1.57595592
172.05826,1.61367891
172.070465,1.6360782
172.094875,1.68989291
172.10708,1.72233317
172.119285,1.75933494
172.13149,1.80174268
172.143695,1.85060574
172.1559,1.90724097
172.168105,1.97331884
172.18031,2.05098376
172.186413,2.09500167
172.192515,2.14302475
172.198618,2.19554275
172.207771,2.28401246
172.216925,2.38621422
172.226079,2.50509043
172.234012,2.62449393
172.237673,2.68561426
172.243776,2.79720204
172.248658,2.89635636
172.25354,3.00557295
172.258422,3.12624655
172.263304,3.2600215
172.268186,3.40884717
172.273068,3.57504826
172.27795,3.76141463
172.280391,3.86318668
172.285273,4.08634309
