energy [eV],cross section [b]
1e-05,124673.871
1.08930326e-05,119466.434
1.14883877e-05,116337.751
1.20837428e-05,113443.435
1.27499874e-05,110448.211
1.34871215e-05,107396.701
1.45928227e-05,103261.026
1.57862952e-05,99294.6583
1.71553104e-05,95265.4478
1.85243255e-05,91692.1581
1.95456756e-05,89274.8835
2.06756991e-05,86812.2907
2.23707343e-05,83474.9568
2.35007577e-05,81453.9308
2.48998873e-05,79145.1718
2.62990168e-05,77023.5412
2.76981463e-05,75065.0869
2.90972759e-05,73249.9395
3.0829597e-05,71176.442
3.2561918e-05,69271.0783
3.42942391e-05,67512.3254
3.709899e-05,64931.1299
4.03162793e-05,62309.5621
4.35335686e-05,59985.1329
4.72616391e-05,57595.3794
5.12451003e-05,55336.8934
5.52285614e-05,53328.3165
5.85166218e-05,51827.9596
6.18046822e-05,50449.5105
6.67367729e-05,48577.0072
7.0416346e-05,47310.7467
7.44874318e-05,46021.1644
8.26296034e-05,43735.6917
8.71854376e-05,42599.8526
9.222602e-05,41443.2172
0.000102307185,39393.7012
0.000111068433,37845.8388
0.000120429869,36383.8798
0.000129791304,35084.5007
0.000141382091,33659.8342
0.000152972878,32402.0138
0.000165483749,31197.2058
0.000175051109,30365.4553
0.000184618469,29600.0757
0.000198969509,28558.6768
0.00021081526,27781.6313
0.000222661011,27068.4285
0.000246352512,25802.1696
0.000261019234,25107.765
0.000275685956,24470.6206
0.000305019399,23339.9443
0.000332258626,22430.051
0.000368577596,21381.361
0.000400141359,20591.6005
0.000422625381,20085.4272
0.000467593423,19188.3658
0.000509351041,18467.7218
0.000551108658,17833.6786
0.000613414978,17015.7563
0.000682350793,16250.5537
0.000759494866,15527.0888
0.000844847196,14851.4533
0.000940362515,14213.9239
0.00104604082,13619.8379
0.00116430235,13060.6094
0.00122972473,12789.4073
0.00136056948,12312.2028
0.00144157168,12053.0853
0.00160357607,11601.2212
0.00178487048,11178.6484
0.00188516271,10974.8264
0.00208574715,10618.1828
0.00233409918,10251.2385
0.00258245121,9947.06839
0.00273619875,9783.58143
0.00304369384,9501.67287
0.00338780268,9242.19489
0.00376852527,9006.90768
0.00419458088,8791.95583
0.00466596952,8598.63609
0.00519348689,8423.61944
0.00577713297,8267.81346
0.00679159277,8063.64158
0.00751422952,7954.72448
0.00840895646,7849.54787
0.00985758291,7728.78822
0.0115192814,7642.34051
0.0135767002,7588.75454
0.0151116321,7578.53894
0.0168098832,7592.5696
0.0182791534,7624.69555
0.0196405637,7670.56418
0.0211230952,7738.15767
0.0227232707,7832.20575
0.0244410902,7958.50935
0.0261855921,8115.1247
0.0279766676,8307.69693
0.028882151,8418.09634
0.030041106,8572.95269
0.032359016,8931.70746
0.0341863501,9265.03026
0.0355231084,9539.96904
0.0368598666,9843.485
0.038865004,10357.3915
0.0401825063,10737.0141
0.0415000087,11153.088
0.0424184897,11466.2795
0.0442554518,12154.4315
0.0451739328,12531.6661
0.0470108949,13358.4183
0.047929376,13810.392
0.049481619,14637.0833
0.050749143,15374.0955
0.0523138806,16365.1705
0.0532448562,16999.0342
0.0551068075,18368.1482
0.0569687587,19871.8621
0.05883071,21502.0457
0.0612250221,23750.8321
0.0649178914,27365.998
0.0668657272,29201.3075
0.0681642844,30338.5151
0.069435826,31354.7009
0.0713026152,32626.146
0.0719248782,32983.9333
0.0731694043,33593.9929
0.0744139303,34062.711
0.0756584564,34396.4379
0.0769029825,34609.1892
0.0781475086,34721.4305
0.0837878425,34705.1899
0.0850356991,34754.5291
0.0862835557,34878.1871
0.0875314124,35096.6814
0.088779269,35427.6414
0.090419687,36058.2549
0.091513299,36613.815
0.092606911,37284.1042
0.093700523,38072.5357
0.0947941349,38980.1866
0.0964345529,40560.6064
0.0978366542,42105.6164
0.0993860503,43989.5625
0.103753548,49760.0788
0.105001405,51327.7211
0.10687319,53399.5797
0.108121047,54519.0212
0.108744975,54985.3351
0.109368903,55385.317
0.11061676,55982.1307
0.111240688,56180.4579
0.112488545,56391.2999
0.11436033,56323.6871
0.119234301,55410.5807
0.120247247,55359.6258
0.121495104,55468.8418
0.122236487,55642.4819
0.123348563,56078.1413
0.124343183,56663.7058
0.124967111,57132.1083
0.125591039,57681.6217
0.126838896,59030.6593
0.128086753,60716.0864
0.129334609,62728.2862
0.130582466,65039.6344
0.131830323,67601.533
0.135573892,75977.7281
0.136821749,78649.5909
0.138069606,81080.8849
0.139317462,83186.4592
0.140565319,84908.0085
0.141189247,85613.1944
0.142437104,86696.35
0.14368496,87319.3429
0.144932817,87437.6755
0.146180674,86983.572
0.147116566,86218.6552
0.147740495,85489.0925
0.148364423,84576.2084
0.149093322,83274.1978
0.150029951,81234.8705
0.150549645,79934.6851
0.151589035,77011.7934
0.153148119,71992.1606
0.156787455,59149.1763
0.158035312,54908.0107
0.15865924,52875.9495
0.159907097,49021.4137
0.160531025,47206.2051
0.161778882,43806.971
0.163026738,40712.8266
0.163650666,39276.226
0.164898523,36612.0161
0.16614638,34207.7026
0.167394236,32039.5208
0.168642093,30083.8475
0.16988995,28318.2581
0.171137806,26722.0714
0.172385663,25276.5672
0.173633519,23965.007
0.174881376,22772.5441
0.176129233,21686.0775
0.176753161,21178.9341
0.178001018,20230.2955
0.179248874,19361.4145
0.181120659,18189.7003
0.182368516,17485.9539
0.183616372,16836.9632
0.184740292,16294.8816
0.185988149,15735.8135
0.187734582,15021.3207
0.188607799,14691.0102
0.190479584,14037.1261
0.192351369,13449.4137
0.194847082,12754.9602
0.196094939,12441.4461
0.198590652,11873.4397
0.201086365,11374.7836
0.203582078,10936.065
0.206077792,10549.5449
0.208573505,10208.8227
0.211069218,9908.5762
0.213564931,9644.35902
0.216060645,9412.44205
0.218556358,9209.68783
0.221052071,9033.4508
0.223547784,8881.49744
0.226043498,8751.94206
0.228539211,8643.19489
0.231364608,8543.52115
0.233530637,8483.00076
0.238522064,8392.69771
0.24351349,8366.79733
0.248504917,8401.98231
0.253496343,8496.73375
0.25848777,8651.0855
0.263479196,8866.46573
0.268470623,9145.59604
0.270966336,9310.25443
0.275957763,9692.77458
0.278453476,9912.05239
0.282197046,10278.2321
0.286108361,10711.4622
0.288436329,10995.3428
0.290932042,11322.3515
0.294675612,11858.9687
0.297171325,12248.8511
0.300914895,12884.0933
0.303410608,13342.2846
0.305906322,13828.8647
0.30940032,14558.1858
0.312395176,15227.6021
0.316388317,16181.0379
0.320381459,17197.1296
0.3243746,18262.8735
0.332360882,20453.6203
0.336354023,21511.691
0.340347165,22485.5686
0.344340306,23322.5585
0.347335162,23827.814
0.349331732,24094.3085
0.351360431,24300.7182
0.353324873,24434.2129
0.355321444,24499.4987
0.357318015,24491.6159
0.359314585,24409.7377
0.361311156,24254.4819
0.364306012,23888.8504
0.367300868,23375.3947
0.370295724,22731.9706
0.374288865,21709.6926
0.379280291,20246.8676
0.391259715,16467.2081
0.396251141,14962.8217
0.401242568,13561.9464
0.404237424,12778.7613
0.406233994,12281.6099
0.409478422,11516.6038
0.413221991,10698.8983
0.416965561,9948.28018
0.419461275,9483.33837
0.423204844,8835.98807
0.426948414,8244.69159
0.430691984,7704.86636
0.433187697,7371.35613
0.43660662,6946.04311
0.439426981,6620.65976
0.441922694,6350.50511
0.444418407,6095.91269
0.448161977,5740.99926
0.45065769,5521.00561
0.453153403,5313.28823
0.455649117,5117.04084
0.45814483,4931.51156
0.460640543,4756.00009
0.46563197,4432.46943
0.470623396,4141.76498
0.475614823,3879.84083
0.480606249,3643.20353
0.485597676,3428.83532
0.490589102,3234.12667
0.495580529,3056.81766
0.500571955,2894.94761
0.505563382,2746.81194
0.510554808,2610.92549
0.515546235,2485.99125
0.523033374,2316.68025
0.530520514,2166.22441
0.538634024,2021.34897
0.542999081,1950.24572
0.547990507,1874.17289
0.555477647,1769.48325
0.560469073,1705.32932
0.5654605,1645.23527
0.572947639,1561.96874
0.582930492,1462.24901
0.587921919,1416.66485
0.597904772,1332.97753
0.605391912,1276.04003
0.612879051,1223.50566
0.622861905,1159.52653
0.632844758,1101.64023
0.637836184,1074.73361
0.647819037,1024.56596
0.652810464,1001.15408
0.662353657,959.190236
0.667784743,936.819477
0.682759022,880.1802
0.692741875,846.076203
0.702724729,814.535999
0.717699008,771.466012
0.732673287,732.827864
0.747647567,698.004353
0.767613273,656.637005
0.777596126,637.844048
0.787578979,620.170686
0.807544685,587.825903
0.821625587,567.148926
0.837493244,545.702303
0.847476097,533.119028
0.867441803,509.836468
0.877424656,499.052073
0.897390362,479.01183
0.927338921,452.307734
0.95728748,429.016312
0.987236039,408.585623
1.02236314,387.685785
1.05711601,369.75385
1.08207314,358.323715
1.11950884,343.144194
1.15694454,330.025106
1.19438024,318.697959
1.23181594,308.952209
1.26583077,301.329115
1.30668733,293.583649
1.33164447,289.55825
1.37523862,283.735126
1.40481182,280.625616
1.44109017,277.714221
1.46643235,276.266081
1.5171167,274.829297
1.54219749,274.857513
1.58047214,275.892781
1.60581431,277.275415
1.64382757,280.477415
1.66916975,283.429916
1.69451192,287.102666
1.72999097,293.591201
1.75533314,299.308482
1.79081219,309.066721
1.8212228,319.327749
1.84149654,327.303064
1.87190715,341.25794
1.90231776,358.04465
1.91245463,364.374379
1.93155231,377.443445
1.95300211,394.139516
1.97327585,412.209753
1.98341272,422.200981
2.00368646,444.383159
2.01889177,463.215522
2.02902863,476.966985
2.0391655,491.785955
2.04930237,507.780698
2.05943925,525.073832
2.06957611,543.804664
2.07971298,564.131971
2.09491829,598.020755
2.10505516,623.193681
2.11012359,636.647617
2.12026046,665.470338
2.13039733,697.119893
2.13546577,714.119931
2.14560264,750.73493
2.15573951,791.242828
2.16080794,813.129184
2.17094481,860.567145
2.18108168,913.514657
2.18615012,942.321631
2.19628699,1005.2297
2.20135542,1039.62001
2.20895808,1095.34081
2.21402651,1135.52105
2.22162916,1200.87886
2.2266976,1248.19958
2.23430025,1325.50373
2.23936869,1381.72268
2.24697134,1473.9968
2.25203977,1541.42937
2.25964243,1652.68157
2.26724508,1777.79498
2.2697793,1822.96679
2.27484773,1919.08291
2.27738195,1970.23972
2.28245038,2079.33568
2.2849846,2137.53247
2.29005304,2261.93428
2.29258725,2328.45296
2.29765569,2470.9927
2.30272412,2627.50233
2.30779256,2799.73911
2.31032678,2892.37333
2.31539521,3092.06617
2.32046365,3313.084
2.32553208,3558.25511
2.32933341,3759.91192
2.33186763,3903.6507
2.33440184,4055.39711
2.33693606,4215.67192
2.33947028,4385.02787
2.3420045,4564.05012
2.34453871,4753.35622
2.34707293,4953.59544
2.34960715,5165.4472
2.35214137,5389.61842
2.35467558,5626.83936
2.3572098,5877.85771
2.35974402,6143.43038
2.36227824,6424.31242
2.36607956,6875.94755
2.36861378,7198.25207
2.37241511,7715.03606
2.37621643,8273.1498
2.38077802,8998.33386
2.38483277,9692.69793
2.38888752,10430.3212
2.39294227,11204.3578
2.40510651,13607.814
2.40916126,14363.3002
2.41220232,14884.4198
2.41524338,15350.4967
2.41727076,15623.4533
2.41929813,15861.3927
2.4213255,16060.5466
2.42335288,16217.6119
2.42538025,16329.88
2.42740763,16395.3486
2.42913089,16413.2741
2.43247606,16348.4247
2.43450343,16246.1593
2.43653081,16098.3364
2.43855818,15907.4433
2.44058556,15676.6076
2.44261293,15409.4724
2.4446403,15110.0604
2.44869505,14431.5633
2.4527498,13675.7644
2.46592773,11050.8922
2.47200985,9899.44524
2.4760646,9182.81723
2.47809198,8841.89752
2.48265357,8119.13899
2.48518778,7744.33703
2.487722,7388.41256
2.49152333,6888.99443
2.49405755,6578.19477
2.49659176,6284.32717
2.50039309,5873.65395
2.50419442,5496.81913
2.50799574,5151.19843
2.51179707,4834.22644
2.51559839,4543.45258
2.51939972,4276.57411
2.52193394,4110.8674
2.52573526,3879.14672
2.52826948,3735.09076
2.53207081,3533.37079
2.53587213,3347.48855
2.54094057,3121.81611
2.546009,2918.72434
2.55107744,2735.56571
2.55614587,2570.03295
2.55868009,2493.23758
2.56374853,2350.45659
2.56881696,2220.74914
2.5738854,2102.68716
2.57895383,1995.02247
2.58402227,1896.6623
2.5890907,1806.64828
2.59415914,1724.13832
2.59922757,1648.39105
2.60429601,1578.75245
2.60936444,1514.64446
2.61443288,1455.55509
2.61950131,1401.02999
2.62456975,1350.66521
2.62963818,1304.1009
2.63470662,1261.01594
2.63977505,1221.12327
2.64484349,1184.16584
2.65244614,1133.73546
2.65751457,1103.15814
2.66258301,1074.80618
2.67271988,1024.15698
2.68032253,990.936337
2.68792519,961.366018
2.69806205,927.049679
2.70819892,897.974854
2.71833579,873.599639
2.72847266,853.482259
2.73860954,837.265073
2.7487464,824.662119
2.75888327,815.449464
2.76902014,809.457835
2.77915702,806.567119
2.78929389,806.702449
2.802473,811.355204
2.81186374,817.774675
2.82125448,826.829331
2.83109494,839.233278
2.84585562,863.731081
2.85569608,884.263422
2.86553654,908.439201
2.87045677,921.986669
2.88029723,952.222375
2.88521746,969.012794
2.89505792,1006.23266
2.90489838,1048.76498
2.91473884,1097.25879
2.9245793,1152.49376
2.93441975,1215.40826
2.94426021,1287.13503
2.94918044,1326.72114
2.95410067,1369.0469
2.96148102,1438.15716
2.96640125,1488.34074
2.97132148,1542.13779
2.97675002,1606.06302
2.98116193,1661.86232
2.98608216,1728.52761
2.99100239,1800.29199
2.99592262,1877.64097
3.00084285,1961.11856
3.00576308,2051.33547
3.01068331,2148.97866
3.01560354,2254.82237
3.02052377,2369.74089
3.025444,2494.72348
3.03036423,2630.89166
3.03528446,2779.51922
3.04020469,2942.05556
3.04512492,3120.1526
3.04758503,3215.61554
3.05250526,3420.67157
3.05742549,3646.51939
3.05988561,3768.04979
3.06480584,4030.145
3.06972607,4320.35154
3.07218618,4477.12892
3.07710641,4816.57286
3.07956652,5000.35881
3.0832567,5295.33405
3.08571681,5505.81558
3.08940698,5844.06739
3.09309716,6211.65914
3.09678733,6611.36467
3.1004775,7046.1392
3.10416767,7519.08502
3.10785784,8033.39236
3.11031796,8400.81927
3.11277807,8788.96237
3.11523819,9198.68425
3.1176983,9630.7639
3.12015842,10085.8581
3.12261853,10564.4544
3.12729275,11539.238
3.13221298,12656.0582
3.13811726,14105.9454
3.15287794,17948.5839
3.15681413,18895.7839
3.15976627,19539.8558
3.16370245,20275.5386
3.16567054,20578.8239
3.16763863,20832.6833
3.16960672,21033.013
3.17157482,21176.4488
3.17354291,21260.5015
3.1754126,21283.9612
3.17747909,21245.4633
3.17944718,21146.5069
3.18141528,20988.4322
3.18338337,20773.8505
3.18535146,20506.2368
3.18731955,20189.7918
3.19125573,19429.8776
3.19420787,18769.6666
3.19814406,17803.8243
3.2119207,14171.5288
3.21782497,12696.0834
3.22077711,12002.0379
3.22372925,11340.9693
3.22840347,10364.7302
3.23086358,9885.9112
3.2333237,9430.89615
3.23578381,8999.14909
3.23824393,8589.97047
3.24070404,8202.54378
3.24316416,7835.97364
3.24685433,7323.15333
3.2505445,6851.86651
3.25423467,6418.8585
3.25792484,6020.97582
3.26161502,5655.22296
3.26530519,5318.79457
3.26899536,5009.09065
3.27268553,4723.71994
3.27514565,4545.9032
3.27883582,4296.32528
3.28129593,4140.5647
3.28498611,3921.58619
3.28744622,3784.69113
3.29113639,3591.90553
3.29359651,3471.17475
3.29728668,3300.85688
3.29974679,3194.00898
3.30343697,3043.01412
3.30589708,2948.12337
3.31081731,2771.03609
3.31573754,2609.3327
3.32065777,2461.36502
3.325578,2325.6878
3.33049823,2201.03149
3.33541846,2086.27886
3.34033869,1980.44477
3.34525892,1882.65884
3.35017915,1792.15052
3.35755949,1668.55919
3.36247972,1593.41753
3.36739995,1523.4725
3.37478029,1427.31262
3.37970052,1368.46374
3.38462075,1313.40975
3.3920011,1237.26869
3.39692133,1190.40047
3.40184156,1146.36034
3.4092219,1085.12951
3.41414213,1047.24582
3.41906236,1011.50859
3.4264427,961.588854
3.43628316,901.193227
3.44120339,873.365648
3.45104385,821.927805
3.45596408,798.133636
3.46580454,753.989048
3.47072477,733.495161
3.48056523,695.345916
3.48548546,677.577409
3.49532592,644.400331
3.50024615,628.901625
3.51008661,599.881945
3.52484729,560.771322
3.53960798,526.243185
3.55436867,495.623989
3.56420913,477.105166
3.57896982,451.817897
3.58881028,436.445258
3.60357097,415.35576
3.61341143,402.478465
3.62817211,384.741489
3.63801257,373.870562
3.65769349,354.153802
3.66753395,345.206354
3.68721487,328.914889
3.69705533,321.49557
3.71673625,307.946635
3.7265767,301.760372
3.74625762,290.440726
3.75609808,285.264178
3.775779,275.782985
3.80530038,263.50153
3.82990152,254.815763
3.85450267,247.356687
3.88894428,238.718901
3.91354543,233.692276
3.93814657,229.521633
3.96274772,226.139877
3.99964944,222.433543
4.02425059,220.817753
4.06115231,219.613614
4.09215959,219.705203
4.12420793,220.854958
4.16150354,223.573823
4.18636729,226.247664
4.21123103,229.651595
4.23609478,233.833827
4.27339039,241.705045
4.29825414,248.136127
4.31814514,254.043111
4.34798163,264.326715
4.36787263,272.246503
4.39770912,285.964793
4.41760012,296.509912
4.43749111,308.342883
4.45738211,321.638725
4.4772731,336.606698
4.4971641,353.498348
4.5170551,372.61789
4.53694609,394.335702
4.54689159,406.307047
4.55683709,419.106058
4.56854047,435.327861
4.57672808,447.490663
4.58667358,463.250783
4.59661908,480.190265
4.60656458,498.425463
4.62148282,528.499474
4.63142832,550.586606
4.64137382,574.51038
4.65131932,600.475608
4.66126482,628.716565
4.67121031,659.502175
4.68115581,693.142282
4.69110131,729.995269
4.69607406,749.754109
4.70601956,792.227984
4.71596506,839.089502
4.72093781,864.354329
4.7308833,918.987917
4.7408288,979.767495
4.74580155,1012.74995
4.75326067,1065.83843
4.75823342,1103.86021
4.76569255,1165.26013
4.77066529,1209.38275
4.77812442,1280.88858
4.78309717,1332.4621
4.79055629,1416.36791
4.79801541,1509.08478
4.80547454,1611.85856
4.81293366,1726.15599
4.82039279,1853.7113
4.82785191,1996.58405
4.83033828,2048.02374
4.83531103,2157.23098
4.83779741,2215.2225
4.84277016,2338.59562
4.84525653,2404.24691
4.85022928,2544.22011
4.85271565,2618.86806
4.8576884,2778.38447
4.86266115,2952.86941
4.8676339,3144.12855
4.87012027,3246.68129
4.87509302,3467.05405
4.88006577,3709.91149
4.88503852,3978.12319
4.89001127,4274.96241
4.89498402,4604.15543
4.89747039,4782.18492
4.89995677,4969.92978
4.90244314,5168.00361
4.90617271,5485.91157
4.90865908,5712.72762
4.91114545,5952.30212
4.91363183,6205.40723
4.91736139,6612.19865
4.91984777,6902.6997
4.92233414,7209.64389
4.92482051,7533.8952
4.92855008,8054.59375
4.93227964,8618.9341
4.9360092,9229.39837
4.93973876,9887.93451
4.94222514,10354.2513
4.94471151,10842.473
4.94868971,11668.3266
4.95266791,12545.9818
4.95863521,13943.2955
4.9705698,16835.9869
4.974548,17736.6851
4.97753165,18355.9192
4.9805153,18908.6214
4.9825044,19232.0153
4.9844935,19513.9516
4.9864826,19750.2169
4.9884717,19937.1266
4.9904608,20071.6618
4.9924499,20151.5867
4.994439,20175.5394
4.9964281,20143.0885
4.9984172,20054.7516
5.0004063,19911.9741
5.0023954,19717.07
5.0043845,19473.1294
5.0063736,19183.8987
5.0083627,18853.6432
5.01134635,18291.5458
5.01433,17664.0699
5.0183082,16754.2361
5.03024279,13846.0014
5.03422099,12903.0754
5.03819919,12001.2425
5.04118284,11357.2825
5.04416649,10743.6652
5.04789605,10021.0332
5.05162561,9348.18471
5.05411199,8926.90996
5.05659836,8526.91092
5.05908474,8147.54643
5.0628143,7615.54714
5.06530067,7284.38164
5.06778705,6971.01257
5.07151661,6532.4114
5.07400298,6259.70973
5.07648936,6001.77339
5.08021892,5640.75846
5.08394848,5308.46533
5.08767804,5002.41554
5.09140761,4720.31431
5.09513717,4460.05151
5.09886673,4219.69668
5.10259629,3997.49044
5.10632585,3791.83369
5.11005541,3601.27585
5.11378498,3424.50277
5.11627135,3313.72005
5.1212441,3107.66588
5.12373047,3011.80772
5.12870322,2833.10151
5.13367597,2670.16559
5.13616235,2594.076
5.1411351,2451.69874
5.14610784,2321.25396
5.14859422,2260.11913
5.15356697,2145.33187
5.15853972,2039.69345
5.16102609,1990.02222
5.16599884,1896.46757
5.17097159,1810.02032
5.17594434,1730.02083
5.18340346,1620.84547
5.18837621,1554.53622
5.19334896,1492.88397
5.19832171,1435.49355
5.20329446,1382.01054
5.20826721,1332.11646
5.21323996,1285.52465
5.21821271,1241.97664
5.22318545,1201.23904
5.2281582,1163.10074
5.2381037,1093.87485
5.2480492,1032.97126
5.2579947,979.291786
5.26794019,931.923737
5.27788569,890.105411
5.28783119,853.19891
5.29777669,820.668594
5.30772219,792.06394
5.31766768,767.00582
5.32264043,755.705003
5.33258593,735.385475
5.34253143,717.91005
5.35247693,703.076022
5.36242243,690.71704
5.37236792,680.699083
5.38231342,672.917308
5.39225892,667.29367
5.40461999,663.234606
5.41350297,662.296548
5.42815429,664.36552
5.43836412,668.509185
5.44857395,674.939477
5.45878378,683.747215
5.46899361,695.054619
5.47920344,709.018647
5.48941327,725.835352
5.49451819,735.386763
5.50472801,756.949736
