energy [eV],cross section [b]
1e-05,0.702524608
1.09847504e-05,0.670295717
1.16412507e-05,0.651121027
1.2297751e-05,0.633503027
1.34548984e-05,0.605649453
1.46982444e-05,0.579467134
1.59415904e-05,0.556411014
1.75114391e-05,0.530885204
1.8558005e-05,0.515698535
2.01278538e-05,0.495179671
2.14492479e-05,0.479684303
2.34313391e-05,0.458947476
2.47527333e-05,0.446529299
2.62476266e-05,0.433627206
2.7916019e-05,0.420469791
2.95844114e-05,0.4084417
3.12528038e-05,0.397390105
3.31402562e-05,0.385907848
3.63000248e-05,0.368729666
3.94597935e-05,0.35365853
4.31727325e-05,0.338109032
4.71622568e-05,0.323492527
5.1151781e-05,0.310621249
5.45098968e-05,0.300901159
5.78680126e-05,0.292039945
6.29051864e-05,0.280103357
6.88242017e-05,0.2677879
7.30641591e-05,0.259901835
7.73041165e-05,0.252673811
8.1544074e-05,0.246017125
8.957413e-05,0.234730888
9.49275007e-05,0.228016102
0.000100280871,0.221846454
0.000109716723,0.21209241
0.000119855473,0.202923622
0.000129994222,0.194849599
0.000142795409,0.185910714
0.000151329533,0.180592494
0.00016413072,0.173406992
0.000174905906,0.167980668
0.000191068685,0.160718838
0.000201843871,0.156370116
0.00021403384,0.151851931
0.000227638592,0.147244335
0.000241243343,0.143032218
0.000254848094,0.139162059
0.00027023915,0.135141087
0.000296005191,0.129125459
0.000313182551,0.125534403
0.000330359912,0.122227202
0.000362892118,0.116619929
0.000395424324,0.111719723
0.000430804183,0.107033958
0.000458187628,0.10378626
0.000499262795,0.0994253067
0.000543933409,0.0952551957
0.000578507749,0.0923648971
0.00061308209,0.0897226778
0.00064765643,0.0872949661
0.000686770382,0.0847726506
0.000730423948,0.0822004205
0.000774077514,0.0798489694
0.000817731079,0.07768842
0.000894674859,0.0742726508
0.000977350354,0.0710618327
0.00106002585,0.06823439
0.00116441194,0.0651040815
0.00126879803,0.0623684992
0.00138232138,0.0597526304
0.00147018664,0.057939575
0.00160198453,0.0555050352
0.00168984979,0.0540427562
0.00180078847,0.0523516278
0.00191172716,0.0508099288
0.00202266584,0.0493968745
0.00213360453,0.048095515
0.00227367572,0.0465904901
0.00241374692,0.0452184504
0.00255381811,0.0439608984
0.00278231626,0.0421170839
0.00304759712,0.0402422971
0.00331287798,0.0385974684
0.0036246007,0.0369004325
0.00384789646,0.0358137545
0.00418284011,0.0343499342
0.00443545462,0.0333574214
0.00471738787,0.0323452676
0.00514028775,0.0309861647
0.00542222101,0.0301698349
0.00577818996,0.0292257479
0.00613415892,0.0283650811
0.00649012788,0.0275762313
0.00684609684,0.0268497361
0.00729554328,0.026009543
0.00796971295,0.0248851465
0.00864388262,0.0238950042
0.00949508932,0.0227988013
0.010346296,0.0218408276
0.0112720117,0.0209247764
0.0119885008,0.0202898624
0.0130632345,0.0194373108
0.0142320432,0.0186220682
0.0151366824,0.0180570246
0.0160413217,0.0175404797
0.0169459609,0.0170658703
0.0179693793,0.0165727662
0.0191115769,0.0160699039
0.0202537745,0.0156102032
0.0213959721,0.0151878231
0.0236335355,0.0144509765
0.0259089065,0.0138018403
0.0286460485,0.0131259027
0.0313773154,0.0125416203
0.0341085823,0.012029005
0.0373180032,0.0115001192
0.0396170018,0.0111614531
0.0430654998,0.0107052495
0.045666357,0.0103959302
0.0485690729,0.0100804898
0.0514717888,0.00979212413
0.0543745047,0.00952716932
0.0576583474,0.00925188968
0.0631558015,0.00884005395
0.0668207709,0.00859420681
0.0704857404,0.00836779262
0.0774268266,0.00798391329
0.0843679127,0.00764844045
0.0919165756,0.00732764843
0.100680392,0.00700146777
0.109444208,0.00671529587
0.116053878,0.00652126298
0.123430675,0.00632339034
0.134495871,0.00605769035
0.141872667,0.00589810064
0.151186612,0.00571353483
0.160500556,0.00554527739
0.169814501,0.00539105995
0.179128445,0.00524903261
0.190888233,0.00508477771
0.208527914,0.00486496201
0.226167595,0.00467139257
0.248439458,0.00445708865
0.270711321,0.00426980807
0.294932716,0.00409072319
0.313679687,0.00396659969
0.341800144,0.00379992878
0.372382079,0.00364055167
0.396052007,0.0035300876
0.419721936,0.00342910486
0.455226828,0.00329266605
0.485112481,0.00318963065
0.514998135,0.00309569954
0.544883789,0.00300960638
0.574769442,0.00293031845
0.631369887,0.00279588786
0.687970332,0.00267840873
0.749525204,0.00256607071
0.820988931,0.00245184567
0.892452659,0.00235163131
0.976427308,0.00224823615
1.03658071,0.00218202825
1.12681082,0.00209284227
1.19486238,0.00203237161
1.27081208,0.00197070431
1.38473662,0.00188789857
1.46068632,0.00183816227
1.55658042,0.00178064218
1.65247451,0.00172820465
1.74836861,0.00168014273
1.90480066,0.00160967474
2.0864145,0.00153802315
2.26802835,0.00147516035
2.48143674,0.00141030242
2.7107424,0.00134933623
2.94004806,0.00129564966
3.1330623,0.00125510694
3.32607654,0.00121814673
3.61559789,0.00116835932
3.9558048,0.00111699196
4.1995046,0.00108409964
4.4432044,0.00105395214
4.68690419,0.00102618781
5.14844728,0.000979114518
5.45614266,0.000951108395
5.76383805,0.000925376167
6.30618198,0.000884694755
6.88892633,0.000846455007
7.47167068,0.000812781846
8.20744375,0.000775502712
8.69795914,0.000753323954
9.43373222,0.000723358858
10.053057,0.000700730683
10.9820442,0.000670449565
11.9110313,0.000643785494
12.6929909,0.000623650497
13.4749504,0.000605295613
14.2569099,0.000588473268
15.0388695,0.00057298156
16.0261717,0.00055506664
17.507125,0.000531094355
18.9880782,0.000509987301
20.85793,0.000486623298
22.7277818,0.000466209694
24.761308,0.000446694037
26.3352248,0.000433170976
28.6960998,0.00041501747
31.2636302,0.000397664945
33.2508577,0.000385642497
35.2380851,0.000374655839
38.2189262,0.000359818617
40.7279998,0.000348620179
43.2370733,0.000338416834
45.7461469,0.000329070335
48.2552204,0.000320467935
53.0071552,0.000305896587
57.7590901,0.000293179943
62.9269778,0.000281038634
68.9267712,0.000268716913
74.9265646,0.000257930875
81.9767223,0.000246832252
87.0269489,0.000239744692
94.6022887,0.000230226356
100.31561,0.000223795138
106.692027,0.000217258895
116.256652,0.000208524261
122.633068,0.000203305447
130.683933,0.000197300535
138.734797,0.000191859576
146.785661,0.000186905253
159.919037,0.000179708484
175.16657,0.000172491321
185.331592,0.000168242241
195.496614,0.000164375787
214.748151,0.000157943271
233.999689,0.00015247827
253.083785,0.000147840292
271.833,0.000143913374
291.742847,0.000140321109
321.882698,0.000135830079
342.342706,0.000133332117
362.802714,0.000131217438
393.492726,0.000128675466
416.112332,0.000127231249
441.94514,0.000125980483
460.23808,0.000125332036
496.823959,0.00012458
516.48582,0.000124458648
536.14768,0.00012452587
575.4714,0.000125207851
601.380693,0.000126048121
639.790063,0.000127862658
664.790216,0.000129413646
702.290446,0.000132305198
727.2906,0.000134625848
759.653503,0.000138125115
792.016405,0.000142222366
824.676428,0.000147017393
846.449777,0.000150615187
879.1098,0.000156672965
909.33235,0.000163059361
939.5549,0.00017028954
969.77745,0.000178473266
999.99999,0.00018774379
1000.00001,0.298749
2000.0,0.252664
5000.0,0.131455
7000.0,0.104616
10000.0,0.0820725
20000.0,0.0502944
50000.0,0.0254321
70000.0,0.0198726
100000.0,0.0154508
200000.0,0.00978391
300000.0,0.007668059
400000.0,0.0065575
500000.0,0.00589015
700000.0,0.005173352
850000.0,0.004907969
1000000.0,0.004764549
1300000.0,0.004696489
1500000.0,0.004735379
2000000.0,0.004925541
2250000.0,0.004847181
2500000.0,0.004875279
2750000.0,0.004698279
3000000.0,0.004646109
3200000.0,0.00429089
3400000.0,0.00384974
3600000.0,0.00337121
3800000.0,0.0030183
4200000.0,0.00221726
4400000.0,0.00199815
4600000.0,0.001821821
4800000.0,0.00168391
5000000.0,0.00151897
5500000.0,0.00116518
6000000.0,0.000938617
7000000.0,0.000663101
8000000.0,0.000524176
9000000.0,0.000444061
10000000.0,0.000394229
11000000.0,0.000360801
12000000.0,0.000339206
13000000.0,0.000329233
14000000.0,0.000312752
15000000.0,0.00029702
16000000.0,0.000272776
17000000.0,0.000239781
18000000.0,0.000203
19000000.0,0.000171712
20000000.0,0.00013828
