energy [eV],cross section [b]
1e-05,100.796352
1.09847504e-05,96.172244
1.16412507e-05,93.4211148
1.2297751e-05,90.8933352
1.34548984e-05,86.8969853
1.46982444e-05,83.1404225
1.59415904e-05,79.8323979
1.75114391e-05,76.1700297
1.8558005e-05,73.9910913
2.01278538e-05,71.0471056
2.14492479e-05,68.8238764
2.34313391e-05,65.8486187
2.47527333e-05,64.066896
2.62476266e-05,62.2157428
2.87502152e-05,59.446301
3.04186076e-05,57.7930708
3.2087e-05,56.2705202
3.52467686e-05,53.6890759
3.84065373e-05,51.4331475
4.18428911e-05,49.2759427
4.58324153e-05,47.0825018
4.98219396e-05,45.1581051
5.28308389e-05,43.8533084
5.61889547e-05,42.5226912
6.12261285e-05,40.7359616
6.6704223e-05,39.0274228
7.09441804e-05,37.8432371
7.51841378e-05,36.7606925
7.94240952e-05,35.7660341
8.42207593e-05,34.7326159
8.957413e-05,33.6787476
9.7604186e-05,32.2636319
0.00010633714,30.9104447
0.00011647589,29.5345278
0.000126614639,28.3273792
0.000138528347,27.0819164
0.000147062471,26.2843988
0.000159863657,25.2100957
0.000174905906,24.101695
0.000185681092,23.3919437
0.000196456278,22.741417
0.000207231465,22.1423115
0.000220836216,21.4494455
0.000234440967,20.8178023
0.000248045719,20.2388661
0.00026165047,19.7056923
0.000287416511,18.8017115
0.000304593871,18.2638857
0.000321771232,17.7697238
0.000352048049,16.9884686
0.000384580255,16.2540914
0.000417112461,15.6074012
0.000444495906,15.1190369
0.000485571073,14.4654802
0.000526646239,13.8899605
0.000561220579,13.4553426
0.00059579492,13.0591288
0.00063036926,12.6959774
0.0006649436,12.361532
0.000708597165,11.9747464
0.000774077514,11.4571287
0.000817731079,11.1471563
0.00086711636,10.8251059
0.000949791855,10.3433003
0.00103246735,9.92059459
0.00112961657,9.48447483
0.00123400266,9.07452577
0.00133838875,8.71352774
0.00142625401,8.44091228
0.0015580519,8.07608479
0.00164591716,7.85761078
0.00174531913,7.6306247
0.00185625781,7.39914846
0.0019671965,7.18754187
0.00207813518,6.99311599
0.00220364012,6.79111534
0.00241374692,6.48891312
0.00255381811,6.30851442
0.00269388931,6.14237694
0.00295917017,5.86069916
0.00322445103,5.61454501
0.00351295282,5.37916753
0.00373624858,5.21603064
0.00395954434,5.06689841
0.00429448799,4.86540826
0.00457642124,4.71325089
0.00499932112,4.50962984
0.00528125438,4.3876951
0.00560020549,4.26101146
0.00595617444,4.13182391
0.0063121434,4.01372771
0.00666811236,3.90522183
0.00707082006,3.79249067
0.00774498973,3.62384406
0.0084191594,3.4758904
0.00921135375,3.32324852
0.0100625604,3.1797737
0.0109137671,3.05343755
0.0116302563,2.95803674
0.0127049899,2.83037372
0.0137797236,2.71796239
0.0146843628,2.63307795
0.0155890021,2.55569895
0.0164936413,2.48478128
0.0173982805,2.4194735
0.0185404781,2.34395041
0.0196826757,2.27510621
0.0208248733,2.21201177
0.0228003032,2.1143099
0.0253,2.00749785
0.0271267196,1.93897662
0.0295564708,1.85788689
0.0322877377,1.77791248
0.0350190046,1.70750105
0.0373180032,1.65433773
0.0396170018,1.60588007
0.0430654998,1.54061832
0.045666357,1.49637881
0.0485690729,1.45127295
0.0514717888,1.41004742
0.0543745047,1.37217692
0.0576583474,1.33283968
0.0613233168,1.29273435
0.0668207709,1.23889994
0.0727994358,1.18744361
0.0797405219,1.13514845
0.0866816081,1.08929203
0.0948378477,1.04200752
0.100680392,1.01174594
0.109444208,0.971004906
0.11665374,0.941010147
0.126174667,0.905433345
0.136640001,0.870729279
0.14652964,0.841437023
0.155843584,0.816459793
0.165157529,0.793644065
0.174471473,0.77269701
0.185008339,0.750951981
0.20264802,0.718459112
0.214407808,0.699087446
0.226167595,0.681265626
0.245499899,0.6548372
0.268751615,0.626964213
0.28555923,0.609007078
0.304306202,0.590791448
0.332426658,0.566470171
0.360547115,0.545114098
0.382946,0.529855019
0.401016207,0.518513131
0.437156621,0.498038095
0.484587414,0.47483729
0.513948,0.46217384
0.544358721,0.450198472
0.574769442,0.439230481
0.609859721,0.427660577
0.64495,0.417101252
0.685326981,0.40603173
0.750827981,0.390144492
0.8087025,0.377875219
0.841453,0.371553252
0.906954,0.360063062
0.977114951,0.349218036
1.06768888,0.337063624
1.15688753,0.326768767
1.234459,0.318941742
1.365461,0.30769582
1.46068632,0.300832796
1.561964,0.294564211
1.627465,0.291015872
1.758467,0.284990493
1.84426271,0.281757101
1.95497,0.278360045
2.085972,0.275420473
2.216974,0.273635268
2.3285663,0.273049004
2.413477,0.273213386
2.544479,0.274606764
2.60998,0.275883657
2.7082315,0.278640661
2.806483,0.28258871
2.871984,0.286021741
2.94004806,0.290414894
3.0291864,0.29775256
3.1077876,0.306161916
3.1601884,0.313095154
3.1863888,0.317055267
3.2387896,0.326180495
3.2911904,0.337306049
3.3173908,0.343813318
3.3435912,0.351088224
3.3828918,0.36374023
3.4221924,0.379024137
3.4483928,0.391080478
3.461493,0.397788263
3.4811433,0.408841762
3.5007936,0.421271477
3.5204439,0.43533202
3.5335441,0.445765491
3.5531944,0.463290031
3.5662946,0.476425135
3.5859449,0.498733539
3.5990451,0.515652195
3.6121453,0.534510531
3.6252455,0.555627888
3.6383457,0.579391731
3.6448958,0.592410077
3.657996,0.621064348
3.6710962,0.653762786
3.6841964,0.691312772
3.69402155,0.723259552
3.70057165,0.74664193
3.70712175,0.771898999
3.71452595,0.802963905
3.723497,0.844648955
3.7300471,0.878262014
3.7365972,0.914911488
3.7431473,0.954962528
3.7496974,0.998833227
3.7562475,1.04700317
3.7627976,1.10002337
3.76607265,1.12854682
3.77262275,1.1900603
3.77917285,1.25819305
3.78572295,1.33384673
3.79227305,1.41805827
3.7955481,1.46373855
3.8020982,1.56306957
3.80537325,1.61708232
3.81028582,1.70408967
3.81356087,1.76639784
3.81847345,1.86688487
3.8217485,1.93891196
3.82666108,2.05514057
3.82993613,2.13846849
3.8348487,2.27289247
3.83976127,2.41942932
3.84467385,2.57892264
3.84958643,2.75209821
3.85580902,2.9918673
3.86235912,3.2690575
3.8675992,3.50821453
3.87545932,3.89116964
3.88986954,4.62133563
3.89510962,4.87062865
3.89903968,5.04155083
3.90427976,5.23832595
3.9068998,5.32000383
3.90951984,5.38869463
3.91213988,5.44320003
3.91475992,5.48253144
3.91737996,5.50595331
3.919738,5.51305303
3.92262004,5.50358086
3.92524008,5.47781947
3.92786012,5.43621337
3.93048016,5.37952797
3.9331002,5.30877893
3.93572024,5.22518808
3.94096032,5.02509679
3.94489038,4.85218342
3.95013046,4.6009354
3.96454068,3.86934239
3.96978076,3.61189992
3.97502084,3.36693702
3.98026092,3.13698156
3.98419098,2.97516678
3.98877605,2.79821166
3.99368862,2.62264291
3.99696367,2.51344317
4.00023872,2.41029189
4.00351378,2.31295464
4.00678882,2.22117547
4.01006388,2.13468598
4.01333892,2.05321243
4.01661398,1.97648117
4.02152655,1.86968859
4.0248016,1.80365059
4.02807665,1.74144776
4.0313517,1.68284361
4.03462675,1.62761362
4.04117685,1.52643887
4.04772695,1.43637018
4.05427705,1.35604082
4.06082715,1.28425626
4.06737725,1.21997678
4.0706523,1.19036445
4.0772024,1.13568782
4.0837525,1.08647863
4.0903026,1.04210418
4.09357765,1.02155539
4.10012775,0.983425879
4.10667785,0.948889148
4.11322795,0.917556899
4.11977805,0.889090089
4.1296032,0.85112382
4.1361533,0.828601407
4.1427034,0.808055421
4.1492535,0.789296894
4.1558036,0.7721589
4.1689038,0.742170122
4.182004,0.717094793
4.1951042,0.696144636
4.2082044,0.678690065
4.2213046,0.664224825
4.2344048,0.652339357
4.2540551,0.638636652
4.2671553,0.631873522
4.2868056,0.624779918
4.3064559,0.620882927
4.3261062,0.619783194
4.3392064,0.620455068
4.3588567,0.623404085
4.378507,0.628538384
4.4047074,0.638599491
4.4178076,0.644968798
4.444008,0.66036364
4.4571082,0.669402739
4.4833086,0.690250198
4.4964088,0.702113417
4.5226092,0.728908457
4.5357094,0.74393826
4.56,0.774946647
4.584206,0.810312813
4.597308,0.831517779
4.61041,0.854309533
4.630063,0.891748941
4.649716,0.933530953
4.669369,0.980240176
4.68690419,1.02664314
4.708675,1.09138852
4.728328,1.15769371
4.747981,1.2327366
4.767634,1.31803984
4.774185,1.34906698
4.787287,1.41548213
4.793838,1.45104878
4.80694,1.52740058
4.813491,1.56841022
4.826593,1.65672879
4.833144,1.70432264
4.846246,1.80718566
4.852797,1.8628204
4.865899,1.98353682
4.8757255,2.08328571
4.8888275,2.23035312
4.898654,2.3526387
4.905205,2.44057812
4.911756,2.53415394
4.9215825,2.68615692
4.9281335,2.79605308
4.9346845,2.91351888
4.944511,3.10545561
4.951062,3.24507023
4.957613,3.39506632
4.964164,3.55647202
4.970715,3.73044192
4.977266,3.91827545
4.983817,4.12143825
4.990368,4.3415871
4.996919,4.58059904
5.00347,4.84060544
5.010021,5.1240318
5.016572,5.43364437
5.023123,5.77260467
5.029674,6.14453316
5.0329495,6.34413539
5.0395005,6.77349402
5.0460515,7.24739652
5.049327,7.50285968
5.055878,8.05490048
5.062429,8.66793389
5.0657045,8.9998955
5.07061775,9.53288437
5.07389325,9.91342085
5.0788065,10.5254857
5.082082,10.9632172
5.08699525,11.6683966
5.0919085,12.4371564
5.09682175,13.2759167
5.101735,14.1915992
5.10664825,15.1915713
5.1115615,16.2835334
5.114837,17.0664894
5.1181125,17.8961202
5.121388,18.774644
5.1246635,19.704125
5.127939,20.686384
5.1312145,21.7228871
5.1371104,23.7279866
5.1397308,24.676707
5.1449716,26.6771243
5.147592,27.725955
5.1528328,29.9087186
5.1711756,37.9037939
5.1764164,40.0152773
5.180347,41.4432653
5.1829674,42.296358
5.1855878,43.0550928
5.1882082,43.7071529
5.1908286,44.2413794
5.1947592,44.8014201
5.1973796,45.0037533
5.19973796,45.0647004
5.2039306,44.8873573
5.206551,44.5939642
5.2091714,44.1661612
5.2117918,43.6116789
5.2144122,42.9402377
5.2170326,42.163137
5.219653,41.2928076
5.2235836,39.8412619
5.2288244,37.7028945
5.2471672,29.6527869
5.252408,27.4636307
5.2550284,26.4128001
5.2602692,24.41042
5.2628896,23.4616037
5.2687855,21.4580616
5.272061,20.4233095
5.2753365,19.4433174
5.278612,18.5165391
5.2818875,17.6410828
5.285163,16.8148221
5.2884385,16.0354844
5.29335175,14.9493131
5.298265,13.955451
5.30317825,13.0460904
5.3080915,12.213779
5.31300475,11.4515282
5.317918,10.7528657
5.3211935,10.3194629
5.32610675,9.71384343
5.32938225,9.3375612
5.3342955,8.81087508
5.337571,8.48305635
5.344122,7.87815263
5.350673,7.33401934
5.3539485,7.08242343
5.3604995,6.6160797
5.3670505,6.19404569
5.370326,5.99801888
5.376877,5.63307086
5.383428,5.30086981
5.389979,4.99780363
5.39653,4.72072
5.403081,4.46686233
5.409632,4.23381497
5.416183,4.01945638
5.422734,3.82191916
5.429285,3.63955591
5.435836,3.47091005
5.442387,3.31469083
5.448938,3.16975196
5.455489,3.03507318
5.4653155,2.85032887
5.4718665,2.73752736
5.4784175,2.63219863
5.488244,2.48687862
5.494795,2.39765437
5.501346,2.31398984
5.5111725,2.19798383
5.5242745,2.05906586
5.534101,1.96528038
5.547203,1.85234206
5.553754,1.80053028
5.566856,1.70519758
5.573407,1.66131726
5.586509,1.58033684
5.59306,1.5429572
5.606162,1.47379986
5.612713,1.44180241
5.625815,1.38248077
5.632366,1.35498216
5.652019,1.28021559
5.671672,1.21567493
5.691325,1.15988426
5.710978,1.11164383
5.730631,1.06997277
5.750284,1.03406544
5.769937,1.00325773
5.78959,0.977001056
5.815794,0.94829941
5.828896,0.936406048
5.8551,0.917092947
5.881304,0.903281786
5.907508,0.894543959
5.92569887,0.891296647
5.946814,0.890315432
5.973018,0.893167106
5.999222,0.900482908
6.0214342,0.910207389
6.047646,0.925949388
6.0607519,0.935611536
6.0869637,0.958695504
6.1000696,0.972208194
6.1262814,1.00345714
6.1393873,1.0213306
6.1655991,1.06198791
6.178705,1.08496822
6.2049168,1.13681548
6.22457565,1.18140312
6.23768155,1.21414989
6.25078745,1.24953626
6.2704463,1.30804559
6.29010515,1.37383289
6.309764,1.44790707
6.3228699,1.50248107
6.3359758,1.56168712
6.35563465,1.66023314
6.3752935,1.77216187
6.38184645,1.81282864
6.39495235,1.89977173
6.40805825,1.99492739
6.42116415,2.099294
6.4277171,2.15528594
6.440823,2.27569581
6.4539289,2.40857473
6.4670348,2.55562564
6.47358775,2.63507834
6.48669365,2.80725561
6.49979955,2.99932488
6.51290545,3.21436414
6.5194584,3.33162312
6.52601135,3.45606413
6.5325643,3.5882687
6.53911725,3.72887758
6.5456702,3.87859794
6.55222315,4.03821161
6.5587761,4.20858455
6.56532905,4.39067764
6.571882,4.58555908
6.57843495,4.79441874
6.5849879,5.01858459
6.59154085,5.2595418
6.5980938,5.51895479
6.60464675,5.79869283
6.6111997,6.10085978
6.61447618,6.26108414
6.62102912,6.60143915
6.62758207,6.97075106
6.63085855,7.16726127
6.6374115,7.5862162
6.64396445,8.04307594
6.64724093,8.28709641
6.65379387,8.8094109
6.66034682,9.38206453
6.6636233,9.68919663
6.67017625,10.3494214
6.67345272,10.704445
6.68000567,11.4696786
6.68328215,11.8822727
6.6898351,12.774045
6.69474981,13.5069906
6.69966452,14.3010928
6.70457924,15.1626004
6.70949395,16.0984429
6.71440866,17.1162872
6.71768514,17.8445488
6.72096161,18.6157058
6.72587632,19.8592083
6.7291528,20.7505547
6.73242927,21.6955915
6.73734399,23.2213836
6.74062046,24.3159953
6.74389694,25.4768785
6.74717341,26.7078128
6.75044989,28.0125689
6.75372636,29.3948312
6.75700284,30.8580967
6.76027931,32.4055462
6.76519402,34.8902985
6.76978109,37.3910078
6.77371286,39.674776
6.77895522,42.9156438
6.78419758,46.3623182
6.78943994,49.9783218
6.80385643,60.2156426
6.80909879,63.7144488
6.81303056,66.1146301
6.81565174,67.5682377
6.81827292,68.8796185
6.8208941,70.0281318
6.82351528,70.9946398
6.82613646,71.7622426
6.82875764,72.3169752
6.83137882,72.6484177
6.834,72.7501708
6.83662118,72.6201563
6.83924236,72.2607178
6.84186354,71.6785118
6.84448472,70.8841989
6.8471059,69.891962
6.84972708,68.7188906
6.85234826,67.3842795
6.85496944,65.9088928
6.85890121,63.4789489
6.86414357,59.9460938
6.87856006,49.6468946
6.88380242,46.0183246
6.88904478,42.5632618
6.89428714,39.3174694
6.8995295,36.2990613
6.90444421,33.6805122
6.90935892,31.2633513
6.91427364,29.0398794
6.91755011,27.6600199
6.92082659,26.358003
6.92410306,25.1300817
6.92737954,23.9724305
6.93065601,22.8812229
6.93393249,21.8526888
6.93720896,20.883157
6.94048544,19.9690852
6.94376191,19.1070803
6.94703839,18.2939111
6.9519531,17.1590717
6.95522957,16.4549666
6.95850605,15.7897227
6.96342076,14.8593522
6.96669724,14.2807789
6.96997371,13.7330813
6.97488842,12.9651893
6.98144137,12.032245
6.98471785,11.6011396
6.9912708,10.8025408
6.99454727,10.4324879
7.00110023,9.74511937
7.0043767,9.42573379
7.01092965,8.83090051
7.01420612,8.55377463
7.02075907,8.03632042
7.02403555,7.79462657
7.0305885,7.34221991
7.03386498,7.13039114
7.04041792,6.7329552
7.04697087,6.36747419
7.05024735,6.19569275
7.0568003,5.8722154
7.06335325,5.57332765
7.06662972,5.43235559
7.07318267,5.16600759
7.07973562,4.91883541
7.08628857,4.6890849
7.09284152,4.47519296
7.09939447,4.27576381
7.10594743,4.08954851
7.11250037,3.91542719
7.11905332,3.75239379
7.12560627,3.59954276
7.13215922,3.45605742
7.13871218,3.32119998
7.14526512,3.19430267
7.15181807,3.07476009
7.15837102,2.96202244
7.16492397,2.85558961
7.1747534,2.70677626
7.1878593,2.52649607
7.2009652,2.36441564
7.20751815,2.28945188
7.22062405,2.1503864
7.23372995,2.02431251
7.24683585,1.90967316
7.2533888,1.85621731
7.2664947,1.75629097
7.27632412,1.68694029
7.28615355,1.62194195
7.29925945,1.5414398
7.3189183,1.43241495
7.33857715,1.33560267
7.358236,1.24925097
7.37789485,1.17190965
7.3975537,1.10237027
7.4106596,1.05983783
7.43031845,1.00112958
7.44342435,0.965054197
7.4630832,0.915041488
7.48048284,0.874468891
7.5024009,0.82773218
7.5155068,0.801882276
7.5417186,0.754361544
7.5548245,0.732493208
7.5810363,0.692109953
7.5941422,0.673444472
7.620354,0.63883521
7.6465658,0.60747465
7.6596717,0.592886619
7.6858835,0.565676142
7.71537177,0.53787883
7.74486005,0.512699328
7.76779537,0.49471836
7.80056012,0.471185406
7.83332487,0.449894875
7.86608962,0.43056899
7.91523675,0.40475719
7.9480015,0.389384105
7.98076625,0.37528786
8.013531,0.362329794
8.04629575,0.350389618
8.0790605,0.339362567
8.11182525,0.329157056
8.16097238,0.315216093
8.2101195,0.302713081
8.275649,0.287950436
8.3411785,0.275031694
8.406708,0.263659411
8.4722375,0.253594095
8.537767,0.244641147
8.6032965,0.236641117
8.668826,0.229462333
8.7343555,0.222995282
8.799885,0.217148268
8.89817925,0.20937461
8.9964735,0.20261176
9.062003,0.19858017
9.193062,0.191479497
9.2585915,0.188344055
9.37892661,0.18319271
9.5207095,0.177975598
9.717298,0.171963579
9.9138865,0.167064434
10.110475,0.163030429
10.372593,0.158692437
10.503652,0.156882014
10.76577,0.153834406
11.027888,0.151409428
11.290006,0.149478914
11.552124,0.147948774
11.814242,0.146748678
12.338478,0.14513737
12.600596,0.144653111
13.124832,0.144200175
13.780127,0.144429904
14.566481,0.145657561
15.2613817,0.147488155
16.00813,0.150175595
16.794484,0.15380143
17.407,0.157213189
18.24419,0.162784587
18.9880782,0.16873537
19.55984,0.174060704
20.217665,0.181157048
20.8097075,0.188626233
21.2044025,0.194304677
21.533315,0.199550112
22.059575,0.209126488
22.322705,0.214577316
22.585835,0.220565614
22.848965,0.227185671
23.112095,0.234556858
23.375225,0.242832339
23.638355,0.252211563
23.76992,0.257394395
23.9743497,0.26622132
24.164615,0.275429236
24.29618,0.282457239
24.4935275,0.294205605
24.6250925,0.302984272
24.7566575,0.312660183
24.8882225,0.323382481
25.0197875,0.335333842
25.1513525,0.348740003
25.2829175,0.363882614
25.4144825,0.381116797
25.5460475,0.400895505
25.61183,0.411915528
25.6776125,0.423803858
25.743395,0.436662342
25.8091775,0.450608407
25.87496,0.465778007
25.9407425,0.482329263
26.006525,0.50044694
26.0723075,0.520348038
26.13809,0.542288784
26.1709813,0.554116953
26.2367638,0.579705745
26.269655,0.593565727
26.3354375,0.623702911
26.3683288,0.640112199
26.4341113,0.675995674
26.4670025,0.695648509
26.5163394,0.727557052
26.5492306,0.750623524
26.5821219,0.775283562
26.6314588,0.815603969
26.66435,0.844965099
26.6972412,0.87654971
26.7465781,0.928618722
26.7794694,0.966862362
26.8123606,1.00830456
26.8616975,1.07729616
26.8781431,1.1023327
26.9110344,1.15584316
26.92748,1.18446051
26.9603713,1.24582152
26.9932625,1.31329899
27.0261537,1.38774248
27.059045,1.4701543
27.085358,1.54261272
27.1149601,1.63202002
27.137984,1.70806039
27.164297,1.80283116
27.19061,1.90706963
27.216923,2.02208607
27.2300795,2.08410822
27.2563925,2.21827477
27.2827055,2.36763748
27.295862,2.44874635
27.3155968,2.57939541
27.3287533,2.67304652
27.3419097,2.77243959
27.3550663,2.87805387
27.374801,3.04931536
27.3879575,3.17292999
27.4076923,3.3742358
27.4208488,3.52018009
27.4405835,3.75897734
27.45374,3.93295728
27.4734748,4.21913739
27.4932095,4.53988071
27.4997877,4.65544038
27.5129443,4.90095922
27.5261008,5.16749244
27.5359681,5.38264616
27.5458355,5.61216095
27.5524137,5.77378448
27.5655703,6.11961642
27.5721485,6.30476511
27.585305,6.70216053
27.5918833,6.91558829
27.6050397,7.3752274
27.611618,7.6229374
27.6247745,8.15837879
27.637931,8.75373666
27.6477984,9.24502399
27.6576657,9.77964123
27.664244,10.1626483
27.6708223,10.5689156
27.6806896,11.2261201
27.6872679,11.699243
27.6938461,12.2031433
27.7004244,12.7404979
27.7070026,13.3142745
27.7135809,13.9277696
27.7201591,14.5846517
27.7267374,15.2890114
27.7333156,16.0454194
27.7398939,16.8589932
27.7464721,17.7354746
27.7530504,18.6813196
27.7596286,19.7038037
27.7662069,20.8111432
27.7727851,22.0126387
27.7793634,23.3188407
27.7859416,24.7417453
27.7925199,26.295022
27.795809,27.125344
27.8023872,28.9041378
27.8089655,30.8566641
27.8122546,31.9048121
27.8188329,34.1600866
27.822122,35.3739678
27.8287003,37.9929949
27.8319894,39.4064892
27.8385676,42.4646582
27.8435013,44.9810773
27.848435,47.710169
27.8533687,50.6737989
27.8583024,53.8961859
27.8632361,57.4040801
27.8681697,61.2269105
27.8731034,65.3968762
27.8763926,68.3868623
27.8796817,71.5576337
27.8846154,76.6780239
27.8879045,80.3519221
27.8911936,84.2484061
27.8961273,90.537587
27.8994164,95.0444327
27.9027056,99.8160301
27.9059947,104.862857
27.9109284,112.968108
27.9155332,121.127305
27.9207958,131.157711
27.9247427,139.159708
27.9300053,150.414695
27.9352679,162.227193
27.94974,195.701851
27.9550027,207.158305
27.9589496,215.025318
27.9615809,219.794398
27.9642122,224.101273
27.9668435,227.878455
27.9694748,231.06332
27.9721061,233.600505
27.9747374,235.444185
27.9773687,236.560073
27.98,236.926978
27.9826313,236.537795
27.9852626,235.399846
27.9878939,233.534528
27.9905252,230.976326
27.9931565,227.771239
27.9957878,223.974786
27.9984191,219.649717
28.0010504,214.863619
28.0049974,206.973433
28.01026,195.490644
28.0247321,161.969223
