energy [eV],cross section [b]
1e-05,2.51211313
1.09766106e-05,2.39775643
1.19532213e-05,2.29771793
1.30146113e-05,2.20203183
1.42455602e-05,2.10474471
1.54765091e-05,2.01930858
1.64040001e-05,1.9613916
1.74383496e-05,1.90233283
1.89898739e-05,1.82296425
2.06760857e-05,1.74704878
2.19798104e-05,1.694444
2.3283535e-05,1.64632181
2.45872597e-05,1.60207974
2.60607485e-05,1.55612955
2.77040015e-05,1.50927348
3.01688811e-05,1.44630401
3.28477364e-05,1.38607416
3.59545432e-05,1.32483655
3.90613501e-05,1.27105858
4.27075597e-05,1.21558914
4.53181671e-05,1.1800571
4.92340781e-05,1.13215603
5.38298684e-05,1.08274835
5.71203549e-05,1.05109928
6.20560847e-05,1.00843289
6.57750412e-05,0.979509431
6.99224675e-05,0.950015766
7.40698938e-05,0.923035329
7.82173202e-05,0.898230336
8.29048026e-05,0.872467663
9.07461103e-05,0.833921505
9.85874181e-05,0.800070827
0.000107790131,0.765155458
0.000117673547,0.732318081
0.000127556962,0.703375267
0.000135861862,0.681538503
0.00014831921,0.652289628
0.000160776559,0.626509713
0.000171244299,0.607059292
0.000181712039,0.589314761
0.000192179779,0.573040509
0.000202647519,0.558044102
0.000215841367,0.540719242
0.000229035215,0.524913851
0.000242229063,0.510418065
0.000263737869,0.489162226
0.000288682743,0.467550735
0.000305312658,0.454639063
0.000321942574,0.442741207
0.000353383828,0.422586687
0.000384825083,0.404955644
0.000418995747,0.388091678
0.000445415404,0.376405983
0.00047183506,0.365716055
0.000511464545,0.351262152
0.000544764659,0.340356977
0.000578064774,0.330408235
0.000611364889,0.321283827
0.000644665003,0.312875862
0.000707623673,0.298633085
0.00074959612,0.290151906
0.000791568567,0.282354567
0.000865458101,0.27003251
0.000944813067,0.258443801
0.00102416803,0.248229531
0.00109084893,0.240523072
0.00119087027,0.230200788
0.00129089161,0.221102743
0.00137493817,0.214238452
0.00145898474,0.207976191
0.00158505458,0.199533981
0.00168004525,0.193811023
0.00178598002,0.187975242
0.00189191479,0.182636741
0.00199784956,0.177728686
0.00211757861,0.172631138
0.00225110192,0.167433096
0.00245138688,0.160447491
0.00266905855,0.153765809
0.00292150363,0.14697233
0.00317394871,0.141006394
0.00347022323,0.134852814
0.00368234938,0.130911016
0.00400053861,0.125597043
0.00437397174,0.12011593
0.0046413418,0.116604895
0.00490871186,0.113384777
0.00517608192,0.110417501
0.00551308304,0.106989504
0.00585008415,0.103862157
0.00618708526,0.100993936
0.00652408638,0.0983509252
0.0071612356,0.0938737641
0.00779838481,0.0899571722
0.00849084485,0.0862109793
0.00929392653,0.0824021045
0.0100970082,0.079057205
0.0110395207,0.0756070988
0.0117143392,0.0733970646
0.012726567,0.0704176967
0.0134892569,0.0683979889
0.0143398182,0.0663384633
0.0151903794,0.0644544345
0.0160409406,0.0627223152
0.0170022574,0.0609233212
0.0186103661,0.0582316619
0.0196824386,0.0566235435
0.020754511,0.0551416931
0.0218908833,0.0536913781
0.0230272555,0.0523497905
0.0253,0.0499430966
0.0270111895,0.0483352131
0.0295659637,0.0461996965
0.0321207379,0.0443243153
0.0340457002,0.0430529974
0.036192442,0.0417566154
0.0394125548,0.0400144174
0.0415592966,0.0389672182
0.0442651134,0.0377574222
0.0469709301,0.0366537299
0.0496767469,0.0356414867
0.0523825637,0.0347087233
0.0557930549,0.0336311312
0.0609087919,0.0321877673
0.0660245288,0.0309155864
0.0724725545,0.0295081835
0.0789205803,0.0282769941
0.0859283581,0.0270993678
0.091346546,0.0262833433
0.0994738279,0.0251866927
0.108306638,0.0241377514
0.115135882,0.0234108976
0.121965126,0.0227459794
0.132208992,0.021846938
0.140816772,0.0211686274
0.149424553,0.0205498062
0.158032333,0.0199822577
0.166640114,0.0194592714
0.182914365,0.0185733488
0.199188615,0.0177983455
0.216875631,0.0170570565
0.237388177,0.0163033598
0.257900723,0.0156414699
0.281974651,0.0149587571
0.299211063,0.0145214291
0.325065681,0.0139318592
0.344546528,0.0135321882
0.366271811,0.0131246353
0.398859734,0.0125769237
0.420585016,0.0122477031
0.447968203,0.0118673623
0.47535139,0.0115203761
0.502734577,0.0112021378
0.547375052,0.0107354851
0.599146917,0.0102610171
0.650918782,0.00984433948
0.711679261,0.00941454863
0.776934048,0.00901032883
0.842188834,0.00865404278
0.897021539,0.0083852271
0.951854244,0.00813998356
1.0341033,0.00780936144
1.13063241,0.00746833082
1.19974517,0.00724987121
1.26885793,0.00704950839
1.33797069,0.00686487392
1.46863833,0.00655210036
1.5557501,0.00636584594
1.64286186,0.0061946046
1.79621597,0.0059239835
1.96091332,0.00566945577
2.12561067,0.00544510381
2.33320007,0.00519689117
2.47159301,0.00504907934
2.67918241,0.00484921151
2.85361695,0.00469840625
3.11526875,0.0044963991
3.37692056,0.00431833573
3.59678299,0.00418398042
3.81664543,0.00406140027
4.03650787,0.00394896918
4.2563703,0.00384535901
4.53349141,0.00372565234
4.94917306,0.00356529618
5.36485471,0.00342394025
5.88879214,0.00326753698
6.41272956,0.00313069423
6.9821499,0.00299978304
7.42240736,0.00290905542
8.08279354,0.00278710684
8.80050774,0.00267043923
9.35542123,0.00258957989
9.91033471,0.00251559822
10.7427049,0.00241554622
11.4421343,0.00234004137
12.1415636,0.002271144
12.8409929,0.00220794196
13.5404223,0.00214969019
14.8627943,0.00205098417
16.1851664,0.0019646025
17.6223333,0.00188194506
19.2890901,0.00179786594
20.9558468,0.0017239925
22.9119853,0.00164775514
24.3125382,0.00159889572
26.4133676,0.00153299467
27.9962932,0.00148829666
29.7615914,0.00144269563
32.4095388,0.00138137462
34.174837,0.00134449275
36.399871,0.0013018606
38.6249049,0.00126294344
40.8499389,0.001227229
44.4772221,0.0011748178
48.6839698,0.00112147354
52.8907175,0.00107457503
57.8278393,0.00102614387
63.1301482,0.000980535377
68.4324571,0.00094028255
72.8879149,0.000909876002
77.3433726,0.000882106386
84.0265592,0.000844620922
89.0621833,0.000819174974
94.6779736,0.000793196217
100.293764,0.000769401723
105.909554,0.000747499336
112.256604,0.000724722835
119.334911,0.000701465573
129.952373,0.000670156386
141.491535,0.000640147235
154.874097,0.000609568976
168.25666,0.000582656235
183.962698,0.000554835696
195.207882,0.000536980809
212.075658,0.000512867723
224.785131,0.000496493527
238.958893,0.00047977361
253.132655,0.000464458883
267.306417,0.000450363482
283.325811,0.000435709613
301.190839,0.000420754085
319.055867,0.000407064359
336.920894,0.000394474137
368.371016,0.000374578475
390.888624,0.000361841958
413.406232,0.000350173247
450.114769,0.000333100075
478.496626,0.000321309551
521.069412,0.000305543785
567.337935,0.000290589308
603.111265,0.000280329454
638.884596,0.000271043315
674.657926,0.000262613712
715.089472,0.000253998365
760.179234,0.00024540158
805.268995,0.000237752911
850.358756,0.000230955792
903.725909,0.000223909222
947.175,0.000218910352
1013.525,0.000212470158
1073.46675,0.000207838263
1120.02512,0.000205004858
1159.60837,0.000203127592
1212.575,0.000201407005
1262.3375,0.000200666524
1295.5125,0.000200682781
1349.43338,0.000201673906
1386.76676,0.000203143988
1430.29169,0.000205792009
1461.3875,0.000208389044
1494.5625,0.000211908186
1511.15,0.000213993416
1544.325,0.000218904919
1577.5,0.000224951728
1604.04,0.000230752001
1630.58,0.000237558615
1646.03955,0.000242054527
1672.57955,0.000250824704
1696.93,0.000260224587
1710.2,0.000265977611
1736.22667,0.000278765673
1747.92175,0.000285248813
1763.28,0.000294557892
1776.31777,0.00030324953
1789.58777,0.000312930677
1807.43593,0.000327459164
1816.36,0.000335452862
1830.6916,0.00034944343
1841.8384,0.000361420197
1858.5586,0.000381447261
1869.7054,0.000396366359
1880.4541,0.000412110544
1895.98,0.000437548507
1909.25,0.000462221068
1915.0888,0.000474054515
1925.4394,0.000496683788
1930.6147,0.000508863329
1939.47242,0.000531191956
1950.5197,0.000561967651
1959.37742,0.000589313565
1965.6475,0.000610290432
1972.2825,0.000634109052
1978.85115,0.000659494826
1987.11172,0.000694258981
1994.62586,0.000728964796
2002.14,0.000766993332
2008.21103,0.000800441026
2017.15169,0.000854730751
2024.06867,0.000901405541
2030.33875,0.000947736787
2038.1017,0.00101113668
2040.8884,0.00103570894
2046.4618,0.00108804767
2049.2485,0.0011159386
2054.8219,0.00117551003
2058.96878,0.00122341511
2063.0493,0.00127384727
2069.817,0.00136554471
2073.798,0.00142473962
2077.5136,0.00148391859
2082.6889,0.00157336326
2087.068,0.00165616924
2092.5087,0.00176938486
2095.2954,0.00183232555
2100.338,0.00195583159
2104.319,0.00206310349
2108.3,0.00218013373
2110.954,0.00226417107
2113.608,0.00235349415
2116.262,0.00244855639
2118.916,0.00254986098
2121.57,0.00265796751
2124.224,0.00277349981
2126.878,0.00289715497
2129.532,0.00302971391
2132.186,0.00317205381
2134.84,0.00332516268
2137.494,0.00349015666
2140.148,0.00366830043
2142.802,0.00386103163
2145.456,0.00406999008
2148.11,0.00429705282
2150.764,0.0045443766
2153.418,0.00481444944
2156.072,0.00511015362
2158.726,0.00543484313
2161.71175,0.00583967387
2163.70225,0.00613593335
2164.6975,0.00629280781
2166.688,0.00662562248
2167.68325,0.00680225796
2169.67375,0.00717790708
2170.669,0.00737777176
2172.6595,0.00780394385
2173.65475,0.00803130194
2175.3135,0.00843338871
2176.6405,0.00877763373
2178.631,0.00933567878
2179.958,0.00973834394
2181.9485,0.0103938757
2183.2755,0.0108689824
2185.266,0.011646129
2186.593,0.0122121733
2188.5835,0.0131430193
2189.9105,0.0138248016
2190.574,0.0141860099
2191.901,0.0149527574
2192.5645,0.0153599287
2193.8915,0.0162263818
2195.2185,0.0171691088
2196.5455,0.0181973399
2197.209,0.0187467904
2198.536,0.019923809
2199.863,0.0212163339
2201.19,0.0226400001
2202.517,0.024213181
2203.844,0.0259575851
2205.171,0.0278990094
2205.8345,0.0289530148
2206.498,0.0300682999
2207.1615,0.0312497117
2207.825,0.0325025856
2208.4885,0.0338328068
2209.152,0.0352468788
2209.8155,0.0367520034
2210.479,0.0383561727
2211.1425,0.0400682753
2212.13775,0.0428607932
2213.133,0.0459572566
2213.7965,0.048212686
2214.46,0.0506390602
2215.1235,0.0532541069
2215.787,0.0560779126
2216.4505,0.0591333097
2217.114,0.0624463396
2217.7775,0.0660468093
2218.441,0.0699689641
2219.1045,0.0742523049
2219.43625,0.0765434422
2219.93388,0.0801847945
2220.4315,0.0840930422
2220.76325,0.0868598831
2221.42675,0.0928206008
2222.09025,0.0994181966
2222.422,0.102984561
2223.0855,0.110719324
2223.41725,0.11491831
2223.749,0.119361228
2224.08075,0.12406734
2224.57838,0.131666968
2224.91012,0.137128665
2225.24188,0.142937904
2225.57362,0.149124799
2226.07125,0.159187435
2226.403,0.166473223
2226.90062,0.178377895
2227.23238,0.187038887
2227.73,0.201263862
2228.06175,0.211668905
2228.22762,0.217176845
2228.55937,0.228858191
2228.72525,0.23505567
2229.057,0.248230727
2229.22287,0.255237716
2229.55462,0.27017218
2229.7205,0.278135889
2230.05225,0.295157191
2230.21812,0.304259829
2230.54988,0.323775155
2230.71575,0.334244394
2230.96456,0.350926308
2231.21338,0.368888426
2231.46219,0.388264979
2231.711,0.409208231
2231.94322,0.43032129
2232.20033,0.45565831
2232.47402,0.485167082
2232.73942,0.516603125
2233.01312,0.552328112
2233.29096,0.592516348
2233.43195,0.614606335
2233.57709,0.638659288
2233.71809,0.663400125
2233.86737,0.691193137
2234.00007,0.717387429
2234.14936,0.748671509
2234.29865,0.78204196
2234.44794,0.817687873
2234.59722,0.855820175
2234.7631,0.901393334
2234.92897,0.95069313
2235.09485,1.00413547
2235.26072,1.06219565
2235.4266,1.12541883
2235.59247,1.19443257
2235.75835,1.26996227
2235.92422,1.35284981
2236.02375,1.40651579
2236.12327,1.46342064
2236.28915,1.56618946
2236.38867,1.63309878
2236.4882,1.70435886
2236.58772,1.78035225
2236.68725,1.86150416
2236.78678,1.94828817
2236.8863,2.04123299
2236.98582,2.14093022
2237.08535,2.24804348
2237.18487,2.36331902
2237.2844,2.48759828
2237.38393,2.62183262
2237.51662,2.81818277
2237.61615,2.98010013
2237.6825,3.09581859
2237.74885,3.21831535
2237.84838,3.41594702
2237.91473,3.55783172
2237.98108,3.70859809
2238.04742,3.86898967
2238.11377,4.03982788
2238.18012,4.22202178
2238.24647,4.41657927
2238.31282,4.6246199
2238.37918,4.84738964
2238.44553,5.0862779
2238.51188,5.34283717
2238.57823,5.61880574
2238.64457,5.91613404
2238.71092,6.23701527
2238.7441,6.40704863
2238.81045,6.76799157
2238.8768,7.15928094
2238.90998,7.36733992
2238.97633,7.81059766
2239.05926,8.42093914
2239.09244,8.68444414
2239.1422,9.10248947
2239.17537,9.39742828
2239.22514,9.86615913
2239.2749,10.3690612
2239.32466,10.909332
2239.35784,11.2920102
2239.4076,11.9026432
2239.45736,12.5610088
2239.50713,13.2718125
2239.55689,14.0402871
2239.60665,14.8722521
2239.65641,15.7741753
2239.68959,16.4178383
2239.72276,17.0980872
2239.77252,18.1925308
2239.8057,18.9754693
2239.83887,19.804434
2239.88864,21.1410214
2239.92181,22.0990418
2239.95499,23.1147703
2240.00475,24.754809
2240.03793,25.9315542
2240.0711,27.1797838
2240.10428,28.5036909
2240.13745,29.9074974
2240.17062,31.3953792
2240.2038,32.9713684
2240.23697,34.6392272
2240.28674,37.3203931
2240.3365,40.2239458
2240.38958,43.5695864
2240.44266,47.1656832
2240.49574,50.9917505
2240.54882,55.0076934
2240.69479,66.3904925
2240.74787,70.2872333
2240.78768,72.9635964
2240.81422,74.5863443
2240.84076,76.0521114
2240.8673,77.3379525
2240.89384,78.4225736
2240.92038,79.2871468
2240.94692,79.9160851
2240.97346,80.2977219
2241.0,80.4248404
2241.03981,80.1343234
2241.06635,79.6252136
2241.09289,78.8742108
2241.11943,77.8950533
2241.14597,76.7050699
2241.17251,75.3244451
2241.19905,73.7754169
2241.23886,71.1876197
2241.29194,67.3688738
2241.47772,52.9543337
2241.5308,49.0272075
2241.55734,47.1412099
2241.61042,43.5458097
2241.65023,41.0131835
2241.68009,39.2083974
2241.71326,37.2983062
2241.74644,35.4871725
2241.7962,32.9507605
2241.82938,31.3753607
2241.86255,29.8880595
2241.91231,27.8134231
2241.96207,25.9137758
2242.01184,24.1749489
2242.0616,22.5831876
2242.09478,21.5972348
2242.14454,20.2219895
2242.17771,19.3692777
2242.22748,18.1783946
2242.26065,17.4389395
2242.31041,16.4046118
2242.34359,15.761286
2242.37676,15.1522142
2242.40994,14.5752334
2242.4597,13.7655569
2242.49287,13.2602728
2242.55922,12.3249523
2242.62558,11.4799846
2242.69193,10.7147851
2242.75828,10.0201622
2242.82463,9.38812496
2242.89098,8.81171633
2242.95732,8.28486866
2243.02367,7.80227984
2243.05685,7.57610847
2243.1232,7.15138367
2243.18955,6.7603523
2243.2559,6.39965133
2243.28908,6.22973338
2243.35543,5.90907262
2243.3886,5.75771286
2243.48812,5.33617924
2243.58765,4.95834182
2243.68718,4.61848789
2243.7867,4.31178889
2243.88623,4.03414478
2243.98575,3.78205883
2244.0521,3.62670346
2244.15162,3.41076899
2244.21798,3.27720421
2244.3175,3.09091278
2244.38385,2.9752953
2244.48338,2.81352179
2244.5829,2.66444647
2244.7156,2.48324137
2244.8483,2.31973661
2244.981,2.17172061
2245.1137,2.03731365
2245.2464,1.9149104
2245.3791,1.8031336
2245.5118,1.70079656
2245.6445,1.60687258
2245.7772,1.52046996
2245.9099,1.44081134
2246.0426,1.36721669
2246.1753,1.2990891
2246.308,1.23590296
2246.50705,1.14938812
2246.63975,1.09663853
2246.77245,1.04742227
2246.9715,0.979559616
2247.17055,0.918058943
2247.3696,0.862151994
2247.56865,0.811182684
2247.7677,0.764588067
2247.96675,0.721882958
2248.1658,0.682647429
2248.4312,0.635106674
2248.5639,0.61317212
2248.8293,0.572570658
2248.962,0.553761823
2249.2274,0.518814922
2249.3601,0.502566194
2249.55915,0.47958459
2249.72503,0.461613671
2249.92407,0.441348066
2250.22265,0.413358317
2250.45488,0.39338554
2250.78662,0.367267375
2251.11838,0.343662036
2251.45012,0.322257677
2251.78188,0.30278931
2252.11362,0.285030608
2252.2795,0.276730582
2252.61125,0.261180745
2252.943,0.246903845
2253.27475,0.233764797
2253.44063,0.227584596
2253.77238,0.215936451
2253.93825,0.210444469
2254.43588,0.195167958
2254.9335,0.181494615
2255.43113,0.169207915
2255.92875,0.158126665
2256.2605,0.151332512
2256.75812,0.141933059
2257.25575,0.133382094
2257.75338,0.125580559
2258.08513,0.120753395
2258.58275,0.114017843
2258.9145,0.109835541
2259.578,0.102132349
2260.2415,0.0952114622
2260.57325,0.0920117167
2261.23675,0.0860775074
2261.5685,0.0833232769
2262.06612,0.0794331973
2262.56375,0.0758091713
2262.8955,0.0735291457
2263.559,0.0692670444
2264.2225,0.065364911
2264.886,0.0617833464
2265.5495,0.058488196
2266.213,0.0554497341
2266.8765,0.0526419921
2267.54,0.050042203
2268.2035,0.0476303394
2269.19875,0.0443268048
2269.86225,0.0423117939
2270.52575,0.0404311411
2271.521,0.0378368829
2272.51625,0.0354846088
2273.5115,0.0333451517
2274.50675,0.0313936088
2275.502,0.0296086148
2276.49725,0.027971756
2277.4925,0.0264670937
2278.8195,0.0246428351
2279.483,0.0238007192
2280.81,0.0222411707
2281.4735,0.0215183463
2282.8005,0.0201747017
2283.464,0.0195496748
2284.791,0.0183838749
2285.4545,0.017839781
2286.7815,0.0168217945
2288.1085,0.015888731
2288.772,0.0154511264
2290.099,0.0146286156
2291.426,0.0138702772
2292.753,0.0131696107
2294.7435,0.0122144717
2296.0705,0.0116345305
2297.3975,0.0110951136
2298.7245,0.010592535
2300.0515,0.0101235182
2301.3785,0.00968514309
2302.7055,0.00927480002
2304.0325,0.00889015136
2305.3595,0.00852909804
2306.6865,0.00818975092
2308.34525,0.00779351155
2309.3405,0.00756952379
2311.331,0.00714980212
2312.32625,0.00695302564
2314.31675,0.00658329751
2316.30725,0.00624256795
2318.29775,0.0059278853
2321.2835,0.00549913002
2323.274,0.0052389246
2325.928,0.00492011156
2327.255,0.00477165771
2329.909,0.00449449997
2331.236,0.0043650281
2333.89,0.00412258194
2335.217,0.00400899293
2337.871,0.00379570257
2339.198,0.00369550449
2341.852,0.00350688212
2343.179,0.00341805293
2347.16,0.00317132671
2351.141,0.00295095741
2355.122,0.00275332579
2357.776,0.00263269147
2361.757,0.0024664901
2364.411,0.00236454625
2368.392,0.00222345757
2371.046,0.00213653968
2375.027,0.00201575601
2377.681,0.0019410548
2380.335,0.00187059999
2384.1833,0.00177534589
2388.09795,0.00168605201
2390.88465,0.00162672417
2396.259,0.00152123779
2399.3111,0.00146607924
2402.7613,0.00140746534
2408.202,0.00132233846
2413.51,0.00124696727
2418.9507,0.00117664034
2424.3914,0.00111251187
2429.9648,0.00105250891
2435.5382,0.000997616925
2438.3249,0.000971908465
2443.8983,0.000923651059
2448.34375,0.00088793337
2453.32,0.000850597693
2457.93133,0.000818282199
2462.54265,0.000787975809
2467.15398,0.000759515761
2471.7653,0.000732755429
2477.83633,0.000699894689
2482.36471,0.000676991827
2487.37414,0.000653122403
2494.88828,0.000619949887
2503.14885,0.000586745019
2513.035,0.000550940325
2519.67,0.000529032352
2528.52772,0.000502132441
2538.84515,0.000473797053
2546.21,0.000455317177
2556.5606,0.000431516729
2561.7359,0.00042047809
2569.8306,0.000404254834
2579.385,0.000386596398
2586.02,0.000375194522
2596.3706,0.000358677613
2612.2946,0.000335936915
2629.0148,0.000315036124
2645.735,0.000296697623
2658.4742,0.000284195362
2674.56408,0.000269970871
2692.41223,0.000255959679
2705.68223,0.000246586734
2718.72,0.000238139792
2738.0942,0.000226814455
2747.7813,0.000221641734
2764.6342,0.000213331473
2776.89275,0.000207784071
2798.34,0.000198966519
2809.42045,0.000194808143
2828.23067,0.00018829766
2843.69023,0.000183413284
2864.69,0.000177374961
2897.865,0.00016904473
2921.0875,0.000163965924
2937.675,0.000160666626
2970.85,0.000154784774
3004.025,0.000149727862
3037.2,0.000145367492
3070.375,0.000141600898
3103.55,0.000138345152
3153.3125,0.000134275344
3186.4875,0.00013202795
3219.6625,0.000130103901
3252.8375,0.000128469122
3302.6,0.000126498841
3335.775,0.000125473843
3402.125,0.000124038002
3451.49439,0.000123450337
3500.07756,0.00012323826
3568.0,0.000123513084
3608.74847,0.000123985434
3660.54541,0.000124912811
3738.24082,0.000126994675
3815.93622,0.000129938395
3867.73316,0.00013241394
3919.5301,0.000135336497
3971.32704,0.000138749014
4023.12398,0.000142707222
4074.92092,0.000147283003
4126.71786,0.000152569292
4178.5148,0.000158687349
4230.31173,0.000165797737
4282.10867,0.000174117407
4308.00714,0.000178820372
4333.90561,0.000183947166
4372.75332,0.000192562711
4398.65179,0.000199032387
4415.91661,0.000203722474
4428.86339,0.000207461435
4454.75695,0.000215583957
4472.01932,0.000221541794
4489.2817,0.000228001446
4506.54407,0.000235033694
4523.80644,0.00024272401
4541.06881,0.000251176542
4559.075,0.00026094431
