energy [eV],cross section [b]
1e-05,11.7427533
1.09736494e-05,11.2097105
1.16227491e-05,10.8921975
1.22718487e-05,10.6002215
1.34140303e-05,10.1388873
1.46404779e-05,9.70492782
1.58669255e-05,9.32231008
1.74118079e-05,8.89913927
1.84417294e-05,8.64707276
1.99866117e-05,8.30616106
2.12839419e-05,8.04903662
2.32299373e-05,7.70452586
2.45272675e-05,7.49799854
2.5993017e-05,7.28352457
2.84442703e-05,6.96261749
3.00784391e-05,6.77083588
3.1712608e-05,6.5940761
3.48003043e-05,6.29474895
3.78880006e-05,6.03280226
4.12429266e-05,5.78222779
4.51323119e-05,5.5274668
4.90216972e-05,5.30366106
5.19512339e-05,5.15195427
5.52173837e-05,4.99726085
6.01166084e-05,4.78930722
6.54398445e-05,4.59038173
6.9554017e-05,4.45255018
7.36681894e-05,4.3264325
7.77823619e-05,4.21045826
8.24306359e-05,4.09002163
8.76130115e-05,3.96721397
9.5386575e-05,3.80212421
0.000103832914,3.6442017
0.000113624804,3.48364067
0.000123416694,3.34258893
0.000134903495,3.19711549
0.000143126331,3.10391739
0.000155460587,2.97824054
0.000169929818,2.84862397
0.000180287631,2.76558464
0.000190645444,2.68940807
0.000201003257,2.61919824
0.00021405037,2.53811868
0.000227097484,2.46413078
0.000240144598,2.3962576
0.000253191712,2.33370077
0.000277843709,2.22776628
0.000294278374,2.1646652
0.000310713038,2.10663923
0.000339632129,2.01495578
0.000370684767,1.92871266
0.000401737404,1.85267296
0.000427814164,1.79532185
0.000466929304,1.71847938
0.000506044444,1.65072815
0.00053889177,1.59962841
0.000571739096,1.55299814
0.000604586422,1.51022162
0.000637433748,1.47079569
0.000678809549,1.42526591
0.00074087325,1.36426239
0.000782249051,1.327692
0.000828996255,1.28971447
0.000907174166,1.23289051
0.000985352078,1.18297106
0.00107706206,1.13148674
0.00117553807,1.08305739
0.00127401408,1.04035773
0.00135671029,1.00815253
0.0014807546,0.965002071
0.0015634508,0.939134233
0.00165688263,0.912271065
0.00176105006,0.884879046
0.0018652175,0.859814987
0.00196938494,0.83676679
0.00208707538,0.812831755
0.00228389557,0.777018912
0.00241510902,0.755616316
0.00254632248,0.735890137
0.00279424502,0.702485584
0.00304216757,0.673252645
0.00331154697,0.645288831
0.00362384009,0.616857805
0.00393613321,0.591881344
0.00417135653,0.574951043
0.00443360777,0.557687437
0.00482698463,0.534480049
0.00508923587,0.520526855
0.00541957798,0.504413455
0.00574992009,0.489709422
0.0060802622,0.4762206
0.00641060431,0.463788327
0.0068267164,0.449431312
0.00745088453,0.430194921
0.00807505266,0.413234385
0.00886127971,0.394476224
0.00964750676,0.37806061
0.0105017791,0.362357665
0.011162021,0.351477402
0.012152384,0.336851112
0.0132284595,0.322859808
0.0140601265,0.313165508
0.0148917936,0.304295094
0.0157234607,0.296138111
0.0166630947,0.287667266
0.0177106957,0.279029656
0.0187582967,0.271126126
0.0198058976,0.263858263
0.0215722736,0.252824891
0.0234361368,0.24256302
0.0256080979,0.232048479
0.028101429,0.221514896
0.03059476,0.212296759
0.0333038804,0.203478816
0.0353976798,0.197369033
0.0374914792,0.191778499
0.0406321783,0.18421748
0.0432696115,0.17851476
0.0472257613,0.170873907
0.0498631944,0.166293365
0.052843019,0.161536573
0.0578263429,0.154419206
0.0611485588,0.150165697
0.0644707748,0.146245352
0.0707479682,0.139606586
0.0770251615,0.133796871
0.0838456248,0.128239373
0.0917526277,0.122589012
0.0996596306,0.117625201
0.10561529,0.114260474
0.112255274,0.110829502
0.12221525,0.106217253
0.133037228,0.101805232
0.141401217,0.0987482219
0.149765205,0.0959510126
0.158129194,0.0933787733
0.167578995,0.0907075552
0.178114608,0.087983743
0.193918028,0.084322124
0.21108918,0.0808194582
0.230995797,0.0772582559
0.250902414,0.0741297503
0.274254732,0.0709031562
0.290971511,0.0688360172
0.31604668,0.0660484845
0.34546219,0.0631735503
0.366519311,0.0613317023
0.398104993,0.0588479711
0.421895748,0.0571643625
0.448420136,0.0554475991
0.474944525,0.0538767284
0.501468914,0.0524321916
0.531436696,0.0509320629
0.581553462,0.0486874722
0.631670228,0.0467155922
0.690461866,0.0446818724
0.753590941,0.0427688032
0.816720016,0.0410820448
0.869733282,0.0398098309
0.949253181,0.0381052167
1.02877308,0.0366022481
1.0955507,0.0354686512
1.16232832,0.0344341893
1.26249476,0.0330391997
1.33794145,0.0320935866
1.4220572,0.0311293399
1.50617295,0.0302470245
1.59028871,0.0294356567
1.73830214,0.0281536281
1.89723547,0.0269476306
2.05616881,0.0258842761
2.25636757,0.0247081705
2.45656633,0.0236788919
2.67409162,0.022694252
2.84221051,0.0220119844
3.0103294,0.0213876767
3.26250774,0.020543281
3.47427699,0.0199063822
3.79193088,0.0190529763
4.00370013,0.0185413456
4.24296126,0.0180100015
4.64309075,0.0172149201
4.90984374,0.0167397248
5.17659673,0.0163017241
5.68061579,0.0155599447
6.18463484,0.0149107264
6.73227503,0.0142896201
7.36715752,0.0136580532
8.00204,0.0131031473
8.48024192,0.0127269572
9.01339077,0.012343318
9.81311404,0.0118275178
10.6820507,0.0113340195
11.3536262,0.0109920258
12.0252017,0.0106790507
12.6967773,0.0103912051
13.4555367,0.0100922371
14.30148,0.00978732999
15.570395,0.00937735083
16.9491302,0.00898505793
18.5475061,0.00858608272
20.145882,0.00823546522
22.0209259,0.00787372266
23.3631778,0.00764189118
25.3765558,0.00732915833
27.7384358,0.00700647424
29.4291898,0.00679965761
31.9653209,0.0065206461
33.8755685,0.0063314313
36.0053097,0.00613841218
38.1350509,0.00596172108
40.2647921,0.00579917151
42.6710161,0.00563029133
46.6950764,0.00537744534
50.7191367,0.00515514777
55.4397346,0.00492568994
60.5086013,0.00470964869
65.577468,0.00451898835
69.834099,0.00437506496
76.2190455,0.00418204592
82.603992,0.00401167291
87.965814,0.00388304376
93.3276361,0.00376555998
101.370369,0.00360696183
107.428263,0.00349933463
114.182227,0.00338947973
120.936192,0.0032888584
127.690157,0.00319623787
139.574702,0.00304970123
152.336047,0.00291162814
165.097391,0.00278968893
181.17209,0.00265458883
197.246788,0.00253614235
214.712697,0.0024226363
228.211584,0.0023438693
241.710471,0.00227170706
261.958802,0.00217397113
278.962538,0.00210014928
295.966274,0.00203270406
312.97001,0.00197076631
329.973746,0.00191362501
348.723773,0.00185547382
367.4738,0.00180178823
403.60451,0.00170900704
429.137931,0.00165058303
456.117632,0.00159423504
496.587184,0.001518465
538.960647,0.00144846687
580.642234,0.00138725964
606.930061,0.00135196798
659.505714,0.00128789748
702.314205,0.00124121853
745.122696,0.00119870644
787.931187,0.00115979727
830.739679,0.00112402886
884.66296,0.00108285775
938.586242,0.00104543944
1019.47116,0.000995261955
1113.42876,0.000944397835
1181.35267,0.000911742425
1226.9446,0.000891487878
1318.12846,0.00085447044
1405.6994,0.000822718223
1535.4776,0.00078135398
1616.80527,0.000758362194
1726.4784,0.000730377998
1858.70093,0.000700586247
1966.4753,0.00067902616
2091.46462,0.000656649151
2193.88567,0.000640158336
2357.4062,0.000616828709
2443.925,0.000605814905
2581.6028,0.000589982555
2712.24619,0.00057671731
2842.77667,0.000565032402
2955.6837,0.000556111939
3179.3348,0.000541530671
3318.51133,0.000534491755
3415.90435,0.000530510872
3584.24278,0.000525564388
3772.85377,0.000523251079
3932.04836,0.000524448306
4070.47844,0.000528393311
4139.69348,0.000531596597
4243.51604,0.000538264409
4312.73108,0.000544174928
4381.94612,0.000551485533
4451.16116,0.000560447112
4520.3762,0.00057137667
4589.59124,0.000584678732
4624.19876,0.000592376944
4693.4138,0.000610264553
4728.02132,0.000620648842
4779.9326,0.000638359788
4814.54012,0.000651802113
4857.79952,0.000670751546
4909.7108,0.000697195492
4961.62208,0.000728539731
5000.55554,0.000755955835
5039.489,0.000787406662
5074.09652,0.000819375287
5108.70404,0.000855820145
5126.0078,0.000875974345
5160.61532,0.000920758102
5186.57096,0.00095884013
5203.87472,0.000986691285
5229.83036,0.001032678
5247.13412,0.00106649341
5265.45722,0.00110541457
5290.39352,0.00116421881
5307.69728,0.00120952357
5333.65292,0.00128551866
5350.95668,0.00134233867
5359.60856,0.00137283396
5376.91232,0.00143845842
5394.21608,0.00151097238
5402.86796,0.00155011452
5420.17172,0.00163486813
5437.47548,0.00172933331
5446.12736,0.00178067343
5463.43112,0.00189266271
5472.083,0.00195381613
5485.06082,0.00205280587
5493.7127,0.00212412111
5506.69052,0.00224001799
5515.3424,0.00232385808
5523.99428,0.00241352438
5532.64616,0.00250956612
5541.29804,0.00261259873
5549.94992,0.00272331364
5558.6018,0.00284248981
5567.25368,0.00297100739
5580.2315,0.00318351763
5588.88338,0.00334005772
5597.53526,0.00351007979
5606.18714,0.00369517089
5610.51308,0.00379392783
5619.16496,0.00400513592
5629.97981,0.00429783803
5636.46872,0.00449076716
5640.79466,0.00462739557
5649.44654,0.00492185505
5653.77248,0.00508067206
5662.42436,0.00542427979
5671.07624,0.00580686528
5675.40218,0.00601463795
5681.89109,0.00634932788
5686.21703,0.00658924235
5692.70594,0.00697707089
5697.03188,0.00725609283
5703.52079,0.00770889697
5707.84673,0.00803598325
5714.33564,0.00856908346
5720.82455,0.00915963662
5727.31346,0.00981618259
5731.6394,0.0102954933
5738.12831,0.0110856491
5740.29128,0.0113700339
5744.61722,0.0119737382
5746.78019,0.0122943408
5751.10613,0.0129765951
5755.43207,0.0137189173
5757.59504,0.0141148265
5761.92098,0.0149611792
5764.08395,0.0154138715
5768.40989,0.0163845831
5770.57286,0.016905426
5774.8988,0.0180260326
5777.06177,0.0186293802
5781.38771,0.0199323091
5785.28106,0.0212274739
5789.607,0.0228226738
5793.06775,0.0242338078
5795.66331,0.0253809419
5797.39369,0.0261920712
5800.85444,0.0279367853
5804.31519,0.029863626
5807.77594,0.0319987583
5809.50632,0.0331539096
5812.10188,0.0350083933
5813.83226,0.0363330811
5816.42782,0.0384664965
5818.1582,0.0399954353
5820.75376,0.0424663807
5822.48414,0.0442436049
5825.0797,0.0471268379
5826.81008,0.0492088574
5829.40564,0.0526009234
5831.13602,0.0550611932
5833.73158,0.0590884666
5836.32715,0.0635741637
5838.92271,0.0685901159
5839.7879,0.0703943789
5841.51828,0.0742226933
5842.38346,0.0762547109
5844.11384,0.080576457
5844.97903,0.0828759089
5846.7094,0.0877789171
5847.57459,0.0903944361
5849.30497,0.0959867957
5850.17016,0.0989784799
5851.90053,0.105394355
5852.76572,0.108837134
5854.4961,0.116244598
5856.22647,0.124427967
5857.95685,0.133498109
5859.25463,0.14096065
5860.11982,0.146284837
5860.98501,0.151912843
5862.28279,0.1609759
5863.14798,0.167469962
5864.01316,0.174359408
5864.87835,0.181676437
5865.74354,0.189456536
5866.60873,0.197738876
5867.47392,0.206566769
5868.3391,0.215988198
5869.20429,0.226056413
5870.06948,0.236830626
5871.36726,0.254462058
5872.23245,0.267306933
5873.09764,0.281124617
5873.96283,0.296012948
5874.39542,0.303892463
5875.26061,0.320597339
5876.1258,0.338674749
5876.55839,0.348273965
5877.42358,0.368695586
5878.28877,0.390900344
5878.72136,0.402734254
5879.58655,0.428006
5880.01914,0.441506024
5880.88433,0.470406297
5881.31692,0.485882624
5882.18211,0.519098457
5882.61471,0.536931438
5883.47989,0.575307031
5883.91249,0.59596491
5884.77768,0.640541281
5885.21027,0.664602259
5886.07546,0.716666135
5886.72435,0.759513335
5887.15694,0.790070963
5887.58954,0.822348547
5888.23843,0.874246653
5888.67102,0.911351263
5889.10362,0.950619713
5889.75251,1.01390272
5890.1851,1.05924234
5890.61769,1.10729963
5891.05029,1.15825384
5891.48288,1.2122931
5891.91548,1.26961365
5892.34807,1.33041873
5892.78066,1.39491687
5893.21326,1.46331943
5893.64585,1.53583741
5894.07845,1.61267704
5894.72734,1.7364635
5895.37623,1.87098779
5896.02512,2.01666351
5896.71727,2.18450551
5897.40942,2.36488801
5898.10157,2.55676816
5898.79372,2.75811496
5900.69714,3.3283215
5901.38929,3.52325355
5901.9084,3.65700011
5902.25447,3.73801573
5902.60055,3.8111216
5902.94662,3.87517113
5903.2927,3.92910224
5903.63877,3.97197808
5903.98485,4.00302572
5904.33092,4.02166988
5904.6597,4.02757026
5905.02308,4.02058203
5905.36915,4.00087292
5905.71523,3.968805
5906.0613,3.92497323
5906.40738,3.8701672
5906.75345,3.80533692
5907.09953,3.73155375
5907.4456,3.64996962
5907.96471,3.5155769
5908.65686,3.32015281
5910.56028,2.7502876
5911.25243,2.54945446
5911.94458,2.35818607
5912.63673,2.17846192
5913.15584,2.05187836
5913.76147,1.91332574
5914.41036,1.77571045
5914.84296,1.69003184
5915.27555,1.60903123
5915.70815,1.53252924
5916.14074,1.46032949
5916.57334,1.39222566
5917.00593,1.32800705
5917.43852,1.26746278
5918.08741,1.18308261
5918.52001,1.13082725
5918.9526,1.08154593
5919.60149,1.01280283
5920.03409,0.970176759
5920.46668,0.929925182
5921.11557,0.873673691
5921.76446,0.82195974
5922.41335,0.774358257
5923.06225,0.730485196
5923.71114,0.689994326
5924.57632,0.640733514
5925.00892,0.617943674
5925.87411,0.575678093
5926.3067,0.556070379
5927.17189,0.519608207
5927.60448,0.502646898
5928.46967,0.471023142
5929.33486,0.442180083
5929.76745,0.428705039
5930.63264,0.403476889
5931.49783,0.380341681
5931.93042,0.36948997
5932.79561,0.349095254
5933.6608,0.330298721
5934.09339,0.321449704
5934.95858,0.304760367
5935.82377,0.289308356
5936.68896,0.274977392
5937.55414,0.261664171
5938.41933,0.249276719
5939.28452,0.237732972
5940.14971,0.226959558
5941.0149,0.216890741
5941.88008,0.207467509
5943.17787,0.194428474
5944.04305,0.186398295
5944.90824,0.178849589
5946.20602,0.168348942
5947.07121,0.161848777
5947.9364,0.155714341
5949.23418,0.147140921
5950.53196,0.139251025
5952.26234,0.129674722
5953.99272,0.121047549
5954.8579,0.117051544
5956.58828,0.109628398
5957.45347,0.106177781
5959.18384,0.0997463072
5960.04903,0.0967468844
5961.77941,0.0911392141
5962.6446,0.0885161375
5964.37497,0.0835982372
5965.24016,0.0812914595
5966.97054,0.0769553185
5968.70091,0.0729571903
5969.5661,0.071074068
5971.29648,0.0675204257
5973.89204,0.0626705201
5975.62242,0.0597226128
5978.21798,0.055677215
5979.94836,0.0532053128
5981.67873,0.0508951996
5983.40911,0.0487331065
5986.00467,0.0457408589
5987.73505,0.0438975336
5989.46542,0.0421642086
5991.1958,0.0405323261
5992.92618,0.0389941423
5994.65655,0.0375426363
5996.38693,0.0361714308
5998.1173,0.0348747229
6001.57806,0.0324841034
6005.03881,0.0303337074
6008.49956,0.0283924464
6010.22994,0.0274918813
6013.69069,0.0258164202
6016.28625,0.0246597948
6019.747,0.0232365795
6022.34257,0.0222498308
6024.93813,0.0213257297
6027.96629,0.0203198986
6032.29223,0.0190043216
6034.4552,0.0183949308
6038.78114,0.0172627609
6040.94411,0.0167363833
6045.27005,0.0157550629
6049.59599,0.0148597091
6051.75896,0.0144411661
6056.0849,0.0136569017
6060.41084,0.0129366694
6064.73678,0.012273683
6069.06272,0.0116620316
6073.38866,0.0110965477
6077.7146,0.0105726976
6082.04054,0.0100864907
6086.36648,0.00963440314
6090.69242,0.00921331374
6095.01836,0.00882045027
6099.3443,0.00845334352
6103.67024,0.00810978845
6107.99618,0.00778781102
6112.32212,0.00748563976
6116.64806,0.0072016813
6120.974,0.00693449934
6125.29994,0.00668279645
6131.78885,0.00633172659
6138.27776,0.00600935275
6146.92964,0.00561894859
6155.58152,0.00526802292
6164.2334,0.00495141926
6172.88528,0.00466479655
6177.21122,0.00453155685
6185.8631,0.00428318855
6190.18904,0.00416733817
6198.84092,0.00395069654
6203.16686,0.00384933096
6211.81874,0.00365922391
6216.14468,0.00357002082
6229.1225,0.00332336157
6242.10032,0.00310444393
6255.07814,0.00290924828
6268.05596,0.00273445796
6276.70784,0.00262788668
6289.68566,0.00248120638
6302.66348,0.00234853933
6315.6413,0.00222814964
6324.29318,0.00215397294
6337.271,0.0020508757
6345.92288,0.0019870987
6363.22664,0.00187011437
6371.87852,0.00181639352
6389.18228,0.00171737964
6397.83416,0.0016716985
6415.13792,0.00158713885
6432.44168,0.00151067701
6441.09356,0.00147516157
6458.39732,0.00140900571
6484.35296,0.00132053574
6501.65672,0.00126778181
6518.96048,0.00121936702
6536.26424,0.00117482465
6553.568,0.00113374919
6579.52364,0.00107787503
6596.8274,0.00104401412
6622.78304,0.000997666369
6649.31109,0.00095513336
6666.04244,0.000930523454
6700.64996,0.000884366034
6717.95372,0.000863422468
6752.56124,0.00082523841
6795.82064,0.000783489802
6834.7541,0.000750674386
6873.68756,0.000721636968
6925.59884,0.000687831864
6977.51012,0.000658676254
7012.11764,0.000641404525
7064.02892,0.000618243774
7115.9402,0.000597893028
7150.54772,0.000585662701
7219.76276,0.000563921364
7254.37028,0.000554230418
7323.58532,0.000536838336
7427.40788,0.000514860053
7531.23044,0.000496749933
7635.053,0.000481628531
7738.87556,0.000468856278
7877.30564,0.000454678463
8036.50023,0.000441461694
8154.1658,0.000433331478
8354.66177,0.000421923919
8470.71078,0.000416440653
8673.2786,0.000408395982
9019.3538,0.000398028203
9280.64058,0.000392253539
9538.4666,0.000387833357
9884.5418,0.000383439965
10154.4805,0.000380986465
10673.5933,0.000378134112
11254.9996,0.000377225453
11907.3513,0.000378470158
12639.3004,0.000382241617
13256.2796,0.000387161404
13864.4066,0.000393485578
14210.4818,0.00039773039
14830.9628,0.000406528043
15503.5609,0.00041784511
16299.9457,0.00043380511
16969.107,0.00044956551
17782.0136,0.000471959709
18323.9514,0.000489120205
18594.9202,0.00049844313
19136.858,0.000518720327
19678.7958,0.000541400177
19949.7646,0.000553738662
20491.7024,0.000580641282
20762.6713,0.000595310278
21248.8676,0.000623906474
21679.3226,0.000651938328
22109.7776,0.000682858921
22540.2325,0.000717053626
22832.99,0.000742411261
23220.64,0.000778937496
23628.913,0.000821570707
23925.2326,0.000855923097
24036.4107,0.000870161389
24123.0892,0.000882924212
24172.7084,0.000892545558
24203.7204,0.000901527724
24219.2264,0.000908283501
24228.53,0.00091381319
24237.8336,0.000921238853
24244.036,0.000927836826
24253.3396,0.000941871163
24257.9914,0.000951856494
24261.0926,0.000960195189
24264.1938,0.000970362204
24267.295,0.000982965063
24270.3962,0.000998886306
24271.9468,0.00100848051
24275.048,0.0010320686
24276.5986,0.00104670042
24278.9245,0.00107345802
24280.4751,0.00109543996
24281.6381,0.00111471702
24282.801,0.00113693046
24284.3516,0.00117223504
24285.1269,0.00119287879
24285.9022,0.00121593399
24287.0652,0.00125591901
24287.8405,0.00128690783
24288.6158,0.00132209596
24289.3911,0.00136227995
24289.7787,0.00138454692
24290.554,0.00143416795
24290.9417,0.00146187427
24291.717,0.00152414054
24292.1046,0.00155921496
24292.6861,0.00161762284
24293.2676,0.00168412772
24293.849,0.00176029833
24294.2367,0.00181740012
24294.8181,0.00191430523
24295.2058,0.00198767611
24295.5159,0.0020522473
24295.7485,0.00210451663
24296.1362,0.00219986866
24296.6013,0.00232998222
24296.9115,0.00242786032
24297.0665,0.0024806019
24297.3766,0.00259459734
24297.5317,0.00265626341
24297.6868,0.00272134817
24297.9969,0.00286282523
24298.1519,0.00293980732
24298.4621,0.00310795804
24298.7722,0.00329771077
24299.0048,0.00345648582
24299.2374,0.00363150159
24299.47,0.00382504037
24299.7025,0.0040397977
24299.8576,0.00419631413
24300.0127,0.00436476791
24300.2452,0.00464258379
24300.4778,0.00495498064
24300.7104,0.00530790156
24300.8655,0.00556921885
24301.0206,0.0058542931
24301.0981,0.0060066417
24301.2531,0.00633301268
24301.4082,0.00669140024
24301.5633,0.00708608815
24301.7183,0.00752209272
24301.8734,0.00800531636
24302.0284,0.00854273942
24302.1835,0.00914266156
24302.261,0.00946908773
24302.3386,0.00981500725
24302.4161,0.0101819784
24302.4936,0.0105717155
24302.5711,0.0109861077
24302.6487,0.0114272403
24302.7262,0.0118974193
24302.8037,0.012399199
24302.8813,0.0129354144
24302.9588,0.0135092176
24303.0363,0.0141241205
24303.1526,0.0151322379
24303.2302,0.0158680761
24303.3077,0.0166609151
24303.3852,0.017516612
24303.424,0.0179700631
24303.5015,0.0189326865
24303.579,0.0199763132
24303.6178,0.0205312659
24303.6953,0.0217136247
24303.7729,0.0230018052
24303.8116,0.0236893911
24303.8892,0.0251601139
24303.9667,0.0267710777
24304.0055,0.0276344811
24304.083,0.0294891535
24304.1218,0.0304857568
24304.1993,0.032632314
24304.238,0.033788852
24304.3156,0.036286756
24304.3543,0.0376362639
24304.4319,0.0405590358
24304.49,0.0429668963
24304.5288,0.0446853702
24304.5675,0.0465015969
24304.6257,0.0494238451
24304.6645,0.0515144489
24304.7032,0.0537280303
24304.7614,0.0572972596
24304.8001,0.0598556527
24304.8389,0.062568221
24304.897,0.0669481512
24304.9358,0.0700908431
24304.9746,0.0734244573
