energy [eV],cross section [b]
1e-05,6.86640321
1.06207199e-05,6.66273178
1.15517996e-05,6.38858225
1.24828794e-05,6.14570817
1.32577165e-05,5.96341403
1.40325537e-05,5.7964351
1.51948093e-05,5.57034014
1.60658378e-05,5.4172348
1.70330576e-05,5.26117864
1.80002775e-05,5.11787605
1.89674973e-05,4.98567949
2.0658476e-05,4.77727502
2.18658449e-05,4.64350868
2.30732137e-05,4.5203843
2.50341546e-05,4.33973242
2.72948705e-05,4.156128
2.95555865e-05,3.99401471
3.21905081e-05,3.8270625
3.40718578e-05,3.71990268
3.68938823e-05,3.57480477
3.90087901e-05,3.47654842
4.13572562e-05,3.37639837
4.48799554e-05,3.24118156
4.72284214e-05,3.15956919
5.01599834e-05,3.06585009
5.30915453e-05,2.98000469
5.60231072e-05,2.90098883
5.89546691e-05,2.82794248
6.26141024e-05,2.74406012
6.81032525e-05,2.63115127
7.35924026e-05,2.53112326
8.04444424e-05,2.42092767
8.72964822e-05,2.32397535
9.4715615e-05,2.23110061
0.000100417828,2.1668287
0.000108971146,2.08005249
0.00011823236,1.99692588
0.000125350363,1.93939995
0.000132468366,1.88657529
0.00013958637,1.83784458
0.00014758803,1.78733014
0.000156473347,1.73584215
0.000165358665,1.68856197
0.000174243982,1.64494604
0.000189778075,1.57618667
0.000206415227,1.51133218
0.000223052379,1.45387641
0.000243820335,1.39058044
0.000264588292,1.33489137
0.000287075059,1.28154445
0.000304357985,1.24462691
0.000321640911,1.21072644
0.0003475653,1.16469889
0.000369139369,1.13015197
0.000390713437,1.09850748
0.000412287505,1.06938053
0.000433861574,1.04245407
0.000460792223,1.01153323
0.000487722873,0.983210186
0.000514653522,0.957140428
0.000541584171,0.933040205
0.000592009979,0.892419824
0.000642435786,0.856681214
0.000697034967,0.822445707
0.000759980895,0.787650696
0.000822926822,0.756928517
0.000896291893,0.725289349
0.000948674988,0.704981477
0.00102724963,0.677483982
0.00108613577,0.658863452
0.00115152496,0.639884065
0.00121691414,0.622455774
0.00128230333,0.606378202
0.00135581019,0.589712153
0.00147824698,0.564763932
0.00155987152,0.549789777
0.00164149605,0.535946912
0.00179433243,0.512615108
0.00194716881,0.492087365
0.00211265433,0.472423019
0.00230343814,0.452437345
0.00249422195,0.434791077
0.00263720093,0.422841541
0.00279596968,0.410661732
0.00303412281,0.394217314
0.00329198612,0.378464574
0.00349017524,0.367563282
0.00368836436,0.357552924
0.00388655348,0.348318406
0.00410934658,0.338745906
0.00435674367,0.328988954
0.0047278393,0.315815751
0.00497523639,0.307864887
0.00528405919,0.298734602
0.00574729339,0.286444971
0.0062105276,0.275557451
0.00678877727,0.263563351
0.00717427705,0.256386207
0.00775252672,0.246641691
0.00823374145,0.239327811
0.00895556354,0.229483153
0.00967738563,0.220761701
0.0102780802,0.214215712
0.0108787747,0.208219739
0.0114794693,0.202700841
0.0120801638,0.19759894
0.0128300036,0.191740271
0.0139547632,0.183854406
0.0147046029,0.17910773
0.0155475308,0.174187377
0.0169515547,0.166821992
0.0183555786,0.160318896
0.0199920039,0.153621867
0.0211604213,0.149323424
0.0229130474,0.143503339
0.024398628,0.139069547
0.0263078354,0.13393273
0.0283235061,0.129083615
0.0302416688,0.124927014
0.0320623234,0.121332071
0.033882978,0.118031028
0.0357036326,0.114985916
0.0377503105,0.11182945
0.0411593623,0.1071046
0.0434320635,0.10426884
0.0457047647,0.101647423
0.049960243,0.0972293337
0.0542157212,0.0933425036
0.0588233941,0.0896194374
0.0623647689,0.0870431601
0.0676768311,0.0835650933
0.0734285336,0.0802336348
0.0778491891,0.0779283843
0.0822698446,0.075811697
0.0889008277,0.0729380988
0.0944190787,0.070781498
0.0999373296,0.0688062785
0.10545558,0.0669883822
0.110973831,0.0653079932
0.121306381,0.0624761384
0.128194747,0.0607818403
0.135083113,0.0592190483
0.14712596,0.0567557718
0.160023956,0.0544329194
0.172921953,0.0523755541
0.183655562,0.0508316968
0.199755975,0.0487541236
0.215856389,0.0469141205
0.229255024,0.0455334544
0.242653658,0.0442691049
0.26275161,0.0425576777
0.277813605,0.0413991391
0.294538959,0.0402186336
0.311264313,0.0391349562
0.327989667,0.0381355908
0.363176172,0.0362642135
0.39,0.035011922
0.404932288,0.0343696353
0.445926404,0.0327762302
0.485019146,0.0314500801
0.524111888,0.0302761711
0.556644553,0.0293957335
0.605443552,0.0282116476
0.65424255,0.0271637478
0.694852685,0.0263779968
0.735462819,0.0256589082
0.79637802,0.0246863443
0.842029658,0.0240285575
0.892722799,0.0233588433
0.94341594,0.0227445974
0.994109081,0.0221786451
1.08273529,0.0212879425
1.14601492,0.020717328
1.20929456,0.0201929579
1.32301465,0.0193489157
1.42389555,0.0186883659
1.55998827,0.0179034922
1.6871428,0.0172601835
1.83504846,0.0166004345
1.98295411,0.0160186435
2.10604001,0.0155838906
2.22912591,0.0151873087
2.41375476,0.0146531867
2.55212103,0.0142936255
2.70576768,0.0139291586
2.85941432,0.0135965032
3.01306097,0.013291562
3.18578192,0.0129776593
3.37757717,0.0126603064
3.56937242,0.0123715047
3.76116768,0.0121075959
4.09648101,0.0116972063
4.45560456,0.0113176349
4.94074609,0.0108836475
5.3188,0.0105962336
5.83732529,0.0102602382
6.19669855,0.0100603606
6.75629306,0.00979368799
7.12935606,0.00964174197
7.77835153,0.00941887037
8.38200782,0.00925187424
9.03745545,0.00910769755
9.58578445,0.00901284641
10.2476,0.00892580629
11.3297303,0.00883988914
11.9458303,0.00881867987
12.712,0.0088175593
13.919556,0.00886801079
14.5930357,0.00892211377
15.3549768,0.0090047099
16.4978884,0.00917005732
17.2598295,0.00930759689
18.2163106,0.00951128859
19.144084,0.00974245207
20.000463,0.00998606731
20.856842,0.0102598686
22.1414105,0.0107304125
23.2705004,0.0112077364
24.319324,0.0117094094
25.354372,0.0122647249
26.38942,0.0128858594
27.424468,0.0135798637
28.3850703,0.0142963894
29.5683676,0.0152867786
30.45568,0.0161171433
30.94856,0.0166143558
31.638592,0.0173574736
32.599708,0.0184927921
33.16652,0.0192226643
33.90584,0.0202492085
34.423364,0.0210224548
35.1868145,0.0222536924
35.87736,0.0234698119
36.37024,0.0244034676
36.86312,0.0253967446
37.60244,0.0270091982
38.09532,0.0281738794
38.83464,0.0300710989
39.57396,0.0321702285
40.31328,0.0344995723
41.0526,0.0370925788
41.79192,0.0399889964
42.03836,0.0410298495
42.53124,0.043236345
42.77768,0.0444063403
43.27056,0.0468918028
43.76344,0.0495891257
44.2302633,0.0523610384
44.6194658,0.0548506805
44.99564,0.0574266077
45.24208,0.0592119784
45.73496,0.0630367794
46.22784,0.0672365108
46.72072,0.0718608604
47.09038,0.0756424014
47.46004,0.0797235302
47.8297,0.0841362328
48.19936,0.0889168635
48.56902,0.0941068787
48.93868,0.0997537193
49.30834,0.105911875
49.49317,0.109201964
49.80122,0.11502812
50.17088,0.122641102
50.41732,0.128134075
50.66376,0.13399574
50.9102,0.140259493
51.15664,0.146962586
51.40308,0.154146674
51.64952,0.16185845
51.89596,0.170150397
52.1424,0.179081665
52.38884,0.188719118
52.63528,0.199138565
52.88172,0.210426237
53.12816,0.222680553
53.3746,0.236014241
53.49782,0.243125611
53.74426,0.258327474
53.86748,0.266458147
54.11392,0.283891381
54.23714,0.293244331
54.48358,0.313364606
54.6068,0.324195802
54.85324,0.347580972
54.97646,0.360216862
55.2121044,0.386345098
55.40773,0.410218929
55.53095,0.426391161
55.65417,0.443523042
55.839,0.471190898
55.96222,0.491076531
56.08544,0.512228176
56.27027,0.546571686
56.39349,0.571393147
56.51671,0.597919281
56.63993,0.626309119
56.76315,0.656740645
56.88637,0.689413566
57.00959,0.724552578
57.19442,0.782448571
57.31764,0.824936417
57.44086,0.870935807
57.50247,0.895374062
57.62569,0.947401528
57.74891,1.0040423
57.87213,1.0658563
57.99535,1.13349091
58.11857,1.20769787
58.24179,1.28935411
58.36501,1.3794876
58.48823,1.47930965
58.61145,1.59025556
58.67306,1.65042215
58.73467,1.71403615
58.79628,1.78136528
58.85789,1.85270369
58.9195,1.9283752
58.98111,2.00873695
59.04272,2.09418359
59.10433,2.18515208
59.16594,2.28212731
59.22755,2.38564847
59.28916,2.49631657
59.381575,2.67720979
59.443185,2.80886248
59.504795,2.95039156
59.566405,3.10280737
59.59721,3.18344918
59.65882,3.3543848
59.72043,3.53935991
59.751235,3.63759641
59.812845,3.84665568
59.874455,4.07413326
59.90526,4.19546066
59.96687,4.4548382
60.02848,4.73885713
60.059285,4.89109144
60.120895,5.21826263
60.1517,5.39421371
60.21331,5.77371198
60.244115,5.97855654
60.299564,6.37559755
60.342691,6.71221687
60.379657,7.02228543
60.422784,7.41178787
60.472072,7.89768896
60.52136,8.43265123
60.570648,9.02348362
60.619936,9.67821462
60.669224,10.4063633
60.693868,10.8014343
60.718512,11.219283
60.743156,11.6616871
60.7678,12.1306005
60.792444,12.6281747
60.817088,13.156783
60.841732,13.7190484
60.878698,14.6319944
60.903342,15.2918208
60.940308,16.3678261
60.964952,17.1490109
61.001918,18.4290791
61.026562,19.363093
61.063528,20.90188
61.088172,22.0310165
61.100494,22.6299018
61.125138,23.9026257
61.149782,25.2847527
61.168265,26.400775
61.186748,27.5915881
61.19907,28.4303285
61.223714,30.2254625
61.236036,31.1867632
61.26068,33.2505731
61.273002,34.3592477
61.297646,36.7474886
61.309968,38.0348811
61.334612,40.8183581
61.353095,43.1085695
61.371578,45.5941284
61.390061,48.2975622
61.402383,50.2334901
61.414705,52.2862243
61.433188,55.6052236
61.44551,57.9933478
61.457832,60.5357135
61.476315,64.6679687
61.488637,67.657361
61.500959,70.8542744
61.513281,74.2779155
61.525603,77.9497062
61.537925,81.8935871
61.550247,86.1363693
61.562569,90.7081429
61.574891,95.6427506
61.587213,100.97834
61.593374,103.809758
61.605696,109.829375
61.618018,116.368673
61.624179,119.851348
61.636501,127.283385
61.648823,135.398466
61.654984,139.737341
61.667306,149.034446
61.679628,159.242558
61.685789,164.723681
61.698111,176.520126
61.704272,182.871026
61.716594,196.577137
61.722755,203.976368
61.7319965,215.826217
61.741238,228.658298
61.7504795,242.573129
61.759721,257.682406
61.7689625,274.110049
61.778204,291.993215
61.7874455,311.483199
61.796687,332.746088
61.802848,347.995133
61.809009,364.169667
61.8182505,390.298877
61.8244115,409.055316
61.8305725,428.957434
61.8367335,450.071753
61.8428945,472.464875
61.8490555,496.202172
61.8552165,521.346069
61.8613775,547.953841
61.870619,590.715225
61.8792444,633.797266
61.8866376,673.182304
61.8964952,729.139911
61.9063528,788.738351
61.9162104,851.364335
61.9433188,1029.27354
61.9531764,1090.324
61.9605696,1132.30364
61.9654984,1157.77906
61.9704272,1180.80689
61.975356,1201.02427
61.9802848,1218.09401
61.9852136,1231.71765
61.9901424,1241.64778
61.9950712,1247.69894
62.0,1249.75613
62.0049288,1247.78017
62.0098576,1241.80962
62.0147864,1231.9589
62.0197152,1218.4129
62.024644,1201.41848
62.0295728,1181.27364
62.0345016,1158.31515
62.0394304,1132.90551
62.0468236,1091.01726
62.0566812,1030.07414
62.0837896,852.373127
62.0936472,789.793784
62.1035048,730.2289
62.1084336,701.782058
62.1182912,647.793111
62.1263005,606.873286
62.135542,562.951409
62.141703,535.591317
62.147864,509.718903
62.154025,485.280748
62.1632665,451.18056
62.1694275,430.05775
62.1755885,410.146138
62.18483,382.404834
62.190991,365.233423
62.197152,349.047085
62.2063935,326.484139
62.215635,305.812613
62.2248765,286.856622
62.234118,269.455257
62.2433595,253.462179
62.252601,238.744871
62.258762,229.582514
62.2680035,216.731531
62.277245,204.863118
62.289567,190.41222
62.301889,177.359325
62.30805,171.304946
62.320372,160.048157
62.332694,149.818666
62.338855,145.052465
62.351177,136.152149
62.363499,128.01771
62.375821,120.567092
62.388143,113.728466
62.400465,107.438816
62.412787,101.642736
62.425109,96.2913985
62.437431,91.3416783
62.449753,86.7553978
62.462075,82.4986857
62.474397,78.5414241
62.486719,74.8567751
62.499041,71.4207726
62.517524,66.6866806
62.529846,63.7832416
62.542168,61.0625167
62.560651,57.292114
62.579134,53.8559843
62.597617,50.7162886
62.6161,47.8403196
62.634583,45.1997008
62.653066,42.7697255
62.665388,41.2559926
62.690032,38.4580303
62.702354,37.1637345
62.726998,34.7623164
62.73932,33.64735
62.763964,31.5715084
62.776286,30.6044525
62.80093,28.7982943
62.813252,27.9542718
62.837896,26.373321
62.86254,24.9222067
62.874862,24.2409671
62.899506,22.9593757
62.92415,21.7764526
62.948794,20.6823726
62.98576,19.1892197
63.010404,18.2816467
63.035048,17.4368436
63.059692,16.6491742
63.084336,15.9136184
63.10898,15.2256937
63.133624,14.5813875
63.158268,13.9770996
63.182912,13.4095924
63.207556,12.8759483
63.2322,12.3735325
63.256844,11.8999608
63.281488,11.4530716
63.306132,11.0309017
63.343098,10.4401313
63.380064,9.89561706
63.429352,9.23351714
63.47864,8.63579461
63.503284,8.35850132
63.552572,7.84259913
63.589538,7.48644615
63.620343,7.20790291
63.657309,6.89374511
63.700436,6.55257539
63.72508,6.36890416
63.78669,5.94223635
63.817495,5.74485277
63.879105,5.37857689
63.940715,5.04636012
63.97152,4.89171956
64.03313,4.60310389
64.09474,4.33939648
64.15635,4.09781099
64.21796,3.87593986
64.27957,3.67169422
64.34118,3.48325461
64.40279,3.30903035
64.4644,3.14762589
64.52601,2.9978128
64.618425,2.79248842
64.680035,2.66717447
64.741645,2.55016195
64.83406,2.38865857
64.926475,2.24212253
65.01889,2.10875786
65.111305,1.98703011
65.20372,1.87562203
65.296135,1.77339762
65.38855,1.67937308
65.51177,1.56529976
65.57338,1.51261046
65.6966,1.41497793
65.75821,1.36970121
65.81982,1.32658395
65.912235,1.26566366
66.00465,1.20888584
66.06626,1.1731519
66.18948,1.10632557
66.25109,1.07505628
66.37431,1.01640919
66.43592,0.988889184
66.55914,0.937136281
66.68236,0.889387919
66.74397,0.866887231
66.86719,0.824404424
67.05202,0.766373574
67.17524,0.731067803
67.29846,0.698178557
67.42168,0.667489578
67.5449,0.638808295
67.66812,0.611962777
67.79134,0.58679913
67.91456,0.563179277
68.03778,0.54097904
68.161,0.520086495
68.28422,0.500400553
68.40744,0.481829716
68.53066,0.464291011
68.65388,0.447709054
68.90032,0.417146966
69.0336821,0.401919161
69.26998,0.376947992
69.51642,0.353349606
69.76286,0.331941073
70.0093,0.312458425
70.13252,0.303367583
70.37896,0.286361576
70.6254,0.270776626
70.87184,0.256457926
70.99506,0.249730757
71.2415,0.237065256
71.36472,0.231099657
71.73438,0.214525689
72.10404,0.199715181
72.4737,0.18642516
72.84336,0.174453191
73.0898,0.167119148
73.45946,0.156980006
73.7059,0.150739842
74.07556,0.142075494
74.322,0.136720728
74.69166,0.129256663
75.06132,0.122407159
75.43098,0.116106038
75.61581,0.113142859
76.1703,0.104926398
76.72479,0.0976042731
77.27928,0.0910501762
77.77216,0.0857840266
78.26504,0.0809798224
78.75792,0.0765845567
79.2508,0.0725526401
79.74368,0.0688446872
80.23656,0.0654265285
80.72944,0.0622684015
81.22232,0.0593442844
81.7152,0.0566313446
82.20808,0.0541094801
82.70096,0.0517609358
83.19384,0.0495699817
83.68672,0.0475226412
84.42604,0.0446940321
85.16536,0.0421242416
86.0327593,0.0393975882
86.89044,0.0369684364
87.62976,0.0350610608
88.12264,0.0338754842
89.059112,0.0317927972
89.576636,0.0307286184
90.58704,0.0288091549
91.400292,0.0274005845
92.041036,0.0263673789
92.706424,0.0253594909
93.54432,0.0241763048
94.542402,0.0228796415
95.047604,0.0222657466
95.805407,0.0213937687
96.575532,0.0205631254
97.61058,0.0195267162
98.128104,0.0190400507
99.163152,0.0181241409
100.50625,0.017038751
101.858589,0.0160494616
103.143158,0.0151940762
104.427727,0.0144111332
105.607558,0.0137488279
106.876428,0.0130907795
108.065353,0.0125200507
109.408747,0.0119230916
111.288,0.0111636023
112.5202,0.010708093
113.7524,0.0102826293
114.849058,0.00992706504
115.945716,0.00959149363
117.997329,0.00901223099
119.642316,0.00858864093
120.603432,0.00835628383
122.525664,0.00792188271
124.8422,0.0074464672
127.035516,0.00703875224
128.957748,0.00671124687
130.9537,0.00639737041
133.023371,0.00609709323
135.093467,0.00581970755
137.163988,0.00556284851
138.864636,0.00536580508
140.8608,0.00514908343
144.175418,0.00482025894
145.832727,0.00466887054
148.297127,0.00445808971
150.7184,0.00426615783
152.517412,0.00413238867
156.115436,0.00388512707
159.245224,0.00368964917
163.0404,0.00347394616
166.424021,0.00329895853
169.620348,0.00314688168
172.491374,0.00302008602
176.5946,0.00285322899
180.2912,0.00271578024
182.7556,0.00263022322
186.699534,0.00250241628
189.658603,0.00241323419
194.097207,0.00228912334
197.056276,0.00221222561
202.974414,0.00207085488
209.378276,0.00193421778
216.025,0.00180770922
222.186,0.00170237684
228.347,0.00160696181
234.508,0.00152019882
240.669,0.001441024
246.83,0.00136853694
249.9105,0.00133455719
256.0715,0.00127069945
260.758054,0.00122548265
266.51754,0.00117350736
272.277027,0.00112513429
278.036513,0.00108002412
283.796,0.00103787784
289.957,0.000995775581
296.118,0.00095647678
305.3595,0.000902240707
311.455,0.000869251166
317.485,0.000838580779
325.501134,0.000800564811
335.603385,0.000756678433
345.705636,0.000716763376
355.807887,0.000680349485
365.910138,0.000647038726
376.012389,0.000616492863
386.11464,0.000588423842
396.216891,0.000562586344
406.319141,0.000538772133
417.810499,0.000513921702
429.301856,0.000491253692
435.047535,0.000480686198
446.538892,0.000461009207
452.284571,0.000451880829
463.775928,0.000435031358
469.521607,0.0004273227
481.012964,0.000413432055
486.758643,0.000407324991
492.504321,0.000401858221
500.26875,0.000395666008
506.325,0.000392009335
512.600821,0.000389629055
518.4375,0.000389128592
522.475,0.000390075339
526.5125,0.000392427446
530.55,0.000396636172
533.578125,0.0004014012
536.60625,0.000407981269
539.4325,0.000416254128
541.855,0.000425476691
544.410738,0.000437994691
545.8925,0.000446910931
547.13605,0.000455544255
548.161575,0.000463583655
549.340525,0.000474014514
550.458912,0.00048526999
551.530869,0.000497508191
552.616956,0.000511599208
553.59605,0.000526006
554.7104,0.000544719013
555.3887,0.00055750898
556.40615,0.000579015414
557.37515,0.000602522288
558.005,0.000619652022
558.99015,0.000649882139
559.79765,0.000678326078
560.651581,0.000712704924
561.099744,0.000732799073
561.683162,0.000761385798
562.44625,0.000803532861
562.85,0.000828334613
563.245675,0.000854545524
563.855338,0.000899089323
564.160169,0.00092347808
564.588144,0.000960401063
564.957575,0.000995059672
565.238181,0.00102329289
565.799394,0.00108531569
566.180938,0.00113226031
566.653325,0.00119657503
566.992475,0.00124754433
567.5012,0.00133268557
567.670775,0.00136366395
568.005887,0.00142917949
568.171425,0.00146382356
568.5025,0.00153812146
568.664,0.00157699636
568.93855,0.00164745246
569.156575,0.00170767341
569.366525,0.0017695886
569.633,0.00185427397
569.7945,0.00190923028
569.964075,0.00197014731
570.287075,0.00209620953
570.602,0.00223343766
570.7635,0.00231001475
571.00575,0.00243372552
571.248,0.00256924775
571.49025,0.00271813066
571.7325,0.00288218598
571.97475,0.00306354322
572.13625,0.00319528454
572.29775,0.00333668292
572.54,0.00356903374
572.78225,0.00382911806
573.0245,0.00412152511
573.186,0.00433712702
573.3475,0.00457149865
573.42825,0.00469641071
573.58975,0.00496324439
573.75125,0.00525511691
573.91275,0.00557525874
574.054063,0.00588151993
574.23575,0.00631607449
574.417438,0.00680338545
574.478,0.00697903113
574.599125,0.00735234444
574.659688,0.00755083922
574.780812,0.00797379804
574.841375,0.00819928047
574.9625,0.00868108717
575.04325,0.00902718113
575.124,0.00939514439
575.20475,0.00978685805
575.2855,0.0102044098
575.36625,0.010650122
575.487375,0.0113772367
575.568125,0.011905355
575.68925,0.0127711951
575.77,0.0134033423
575.891125,0.0144455513
575.971875,0.0152109332
576.01225,0.015617111
576.093,0.0164808396
576.133375,0.0169403377
576.214125,0.0179200044
576.294875,0.0189887228
576.375625,0.0201576182
576.416,0.0207835898
576.49675,0.0221276281
576.5775,0.0236083069
576.65825,0.025244789
576.739,0.0270597175
576.799563,0.0285540206
576.839937,0.0296207997
576.880312,0.0307491084
576.920687,0.0319437696
576.961063,0.0332100882
577.001438,0.0345539096
577.041813,0.035981688
577.082187,0.037500563
577.122562,0.0391184499
577.162937,0.0408441422
577.203313,0.0426874319
577.243687,0.0446592478
577.284063,0.0467718184
577.344625,0.0502350582
577.385,0.052763347
577.425375,0.0554884822
577.46575,0.0584314339
577.506125,0.0616160397
577.5465,0.0650694888
577.586875,0.0688229034
577.62725,0.0729120415
577.667625,0.0773781504
577.708,0.0822690101
577.748375,0.0876402141
577.78875,0.0935567543
