energy [eV],cross section [b]
1e-05,29.9359721
1.06021643e-05,29.0734188
1.15054107e-05,27.9088738
1.2107575e-05,27.2060063
1.27822596e-05,26.4782675
1.39030671e-05,25.3885606
1.53974771e-05,24.1250718
1.67882487e-05,23.104188
1.81790203e-05,22.2028221
1.9681455e-05,21.3385461
2.14072158e-05,20.4603634
2.31329766e-05,19.6823835
2.44220427e-05,19.1558957
2.58496676e-05,18.619413
2.7991105e-05,17.8930122
2.94187299e-05,17.4534597
3.11902207e-05,16.9505688
3.29617116e-05,16.4887842
3.47332024e-05,16.0627947
3.65046932e-05,15.6682027
3.87028754e-05,15.2167509
4.20001488e-05,14.6072396
4.4198331e-05,14.2393658
4.66612466e-05,13.8584746
5.075272e-05,13.2881329
5.48441934e-05,12.7828686
5.9592664e-05,12.2630156
6.297731e-05,11.9289344
6.80542791e-05,11.475352
7.39464933e-05,11.0086732
7.81463846e-05,10.7087641
8.6546167e-05,10.1758321
9.1757668e-05,9.88263377
9.6969169e-05,9.61340152
0.000107392171,9.13498154
0.00011709233,8.74842397
0.000123559103,8.516413
0.000130025876,8.3019332
0.00014128366,7.96431142
0.000153320255,7.64529965
0.00016535685,7.3617872
0.000180292648,7.05026499
0.000190249847,6.86329008
0.000205185645,6.60877736
0.000217541192,6.41835797
0.000236074511,6.1612702
0.000248430058,6.00610352
0.000262273618,5.8454462
0.000285270979,5.60488004
0.000315934128,5.32594948
0.000344470765,5.10057703
0.000363495189,4.96530903
0.000382519614,4.84026215
0.000415638582,4.64342058
0.000451048716,4.45742915
0.000486458851,4.29213472
0.000515751665,4.16846604
0.000545044479,4.05490609
0.0005889837,3.90072573
0.000639978556,3.74209378
0.000676327005,3.64014971
0.000730849678,3.50174024
0.000771575674,3.4080735
0.000816679218,3.31262863
0.000861782762,3.2247785
0.000906886306,3.14356653
0.000957421798,3.05948089
0.00104137296,2.93357224
0.00115330784,2.7875844
0.00125747996,2.66962817
0.00136165208,2.56548157
0.00147418802,2.46562062
0.00156036376,2.39657108
0.00168962737,2.30307774
0.00182926937,2.21343169
0.00193620189,2.15144534
0.00204313441,2.09439141
0.00220353319,2.01672899
0.00233622209,1.95862423
0.00246891098,1.90526906
0.00273428878,1.81045832
0.00298126243,1.73385267
0.00314591153,1.68787426
0.00331056064,1.64537017
0.00359719261,1.57846288
0.00390365375,1.51524384
0.00421011489,1.45906
0.00446363297,1.41702496
0.00484391009,1.36027315
0.00522418721,1.3098369
0.0055387691,1.27210207
0.00585335099,1.23745186
0.00632522383,1.19040749
0.00667769172,1.15857103
0.0070680456,1.12613035
0.00745839948,1.09627119
0.00784875337,1.0686684
0.00852830706,1.025218
0.00901268381,0.997295037
0.00949706055,0.971536694
0.0102819606,0.933728997
0.0111835303,0.895313428
0.0120851,0.861281616
0.0131314413,0.826267692
0.0142501683,0.793184287
0.0153688953,0.763782849
0.0162943552,0.741785833
0.0172198152,0.72158713
0.0186080052,0.694163795
0.0196449209,0.675605744
0.0207932925,0.656695685
0.0225158498,0.63109189
0.024073166,0.610351603
0.0253,0.595380015
0.0263160302,0.583782134
0.0283480906,0.562486407
0.0311323233,0.536767134
0.033784627,0.515286805
0.0364369307,0.496197528
0.0386310325,0.481915967
0.0419221852,0.462635009
0.0452133379,0.445500445
0.0479359236,0.432681404
0.0506585093,0.420910666
0.0547423878,0.40493032
0.0577928623,0.394116401
0.0611712255,0.38309771
0.0645495887,0.372956296
0.067927952,0.363581652
0.0717131811,0.353875794
0.0759052762,0.343986258
0.0800973713,0.334884211
0.0842894664,0.326470451
0.0915873411,0.313227105
0.0993900816,0.300715139
0.107192822,0.289596775
0.116874976,0.277381539
0.126557129,0.266597924
0.137016648,0.256259583
0.14502615,0.24911204
0.153035651,0.242534019
0.165049903,0.233581252
0.174988618,0.226884136
0.184927334,0.220735352
0.204804765,0.209811491
0.217137376,0.203803068
0.229469988,0.198286792
0.254135211,0.188487162
0.277089882,0.180572011
0.300044554,0.17358592
0.324842224,0.1668897
0.353325889,0.16008846
0.381809554,0.154065852
0.414867045,0.147872232
0.43842998,0.14389365
0.473774384,0.138494332
0.500175071,0.134842144
0.52941351,0.131122203
0.558651949,0.127699798
0.587890388,0.124537417
0.620650095,0.121264696
0.656931072,0.11793162
0.693212048,0.114865487
0.729493024,0.112032634
0.770143422,0.109101296
0.837673151,0.104715632
0.90520288,0.100834509
0.98357634,0.0968459225
1.06737167,0.0930820494
1.15116699,0.0897415099
1.22048615,0.0872453075
1.3244649,0.0838798625
1.42844365,0.0808940135
1.51445942,0.078663598
1.60047519,0.0766184275
1.68649097,0.0747345067
1.77250674,0.0729919728
1.87924077,0.071001601
1.98597479,0.0691772671
2.09270881,0.0674974531
2.19944284,0.065944348
2.33188543,0.064171177
2.53054931,0.0617842116
2.7292132,0.0596704907
2.9757284,0.0573574234
3.22224361,0.0553246057
3.48855117,0.053385004
3.69247934,0.0520500489
3.99837161,0.0502516593
4.2392,0.0489821164
4.60493364,0.0472590327
4.97066728,0.0457418394
5.21448971,0.0448265713
5.52848765,0.0437451614
5.8424856,0.0427594096
6.47048148,0.0410273703
6.86011076,0.0400867344
7.24974004,0.0392317818
8.0289986,0.0377364488
8.75421503,0.0365544752
9.47943145,0.0355342109
10.2628745,0.0345802409
11.1627707,0.0336398204
12.3626322,0.0325935459
13.1070658,0.0320420908
13.8514993,0.0315534619
15.3403664,0.0307346958
17.2483166,0.0299340875
18.747576,0.0294602448
20.1815746,0.0291113426
22.4740543,0.0287291549
25.0426239,0.0285127307
26.4649536,0.0284746662
29.3096131,0.0285505368
31.5294,0.0287368946
33.9493469,0.0290565947
36.3692939,0.0294918906
38.5593229,0.0299830265
40.7493518,0.0305662963
42.9393808,0.0312431632
45.1745,0.0320335601
47.90352,0.0331419845
50.63254,0.0344193064
52.2221942,0.0352472186
54.9056927,0.0367973392
57.45509,0.0384645846
60.2932708,0.0405718448
62.2854554,0.0422286485
65.1713941,0.044925145
67.7765268,0.047704296
69.4879054,0.0497342477
70.4725154,0.0509836464
72.3555392,0.0535553492
73.5017276,0.0552484123
75.2210102,0.0579890533
76.3262633,0.0598902573
77.92274,0.0628498468
79.28725,0.065599826
80.4197933,0.0680529244
82.01627,0.071802623
83.5308761,0.0757127478
84.74529,0.0791266456
86.1098,0.0832942511
87.2935124,0.0872265542
88.83882,0.0928605714
90.1453383,0.0981246753
91.56784,0.1044538
92.8231892,0.110629706
93.3962834,0.113654662
94.5424718,0.120133818
95.934272,0.128864122
96.5892368,0.133341579
97.298782,0.138488735
97.844586,0.142674694
98.936194,0.151698325
99.481998,0.156567817
100.573606,0.167114148
101.392312,0.175815814
102.211018,0.185292216
103.029724,0.195647845
103.84843,0.207009606
104.667136,0.219535078
105.144715,0.227456762
105.758744,0.238403268
106.168097,0.24623517
106.850352,0.260387563
107.396156,0.272869675
107.669058,0.2795657
108.214862,0.294039677
108.487764,0.301910134
108.897117,0.314684742
109.30647,0.328896394
109.715823,0.345001865
110.125176,0.363736882
110.398078,0.378277878
110.602755,0.39065932
110.739205,0.399811764
110.875657,0.409850068
111.012108,0.420964418
111.216784,0.440219385
111.353235,0.455300847
111.421461,0.463696711
111.489686,0.472769078
111.592024,0.487866764
111.694363,0.505131317
111.762588,0.51811195
111.864926,0.540315315
111.933152,0.557337156
112.001377,0.576542231
112.03549,0.587100349
112.103716,0.610465537
112.171941,0.637391179
112.240167,0.668728584
112.274279,0.686389417
112.308392,0.705601182
112.342505,0.726565017
112.376618,0.74951585
112.427787,0.788284206
112.458488,0.814460627
112.492601,0.846550531
112.526714,0.882284748
112.554004,0.913893248
112.594939,0.967201958
112.622229,1.00731952
112.649519,1.05172444
112.663165,1.07573293
112.690455,1.1278251
112.717745,1.18607629
112.745035,1.25151554
112.772325,1.32539537
112.785971,1.36596754
112.806438,1.43198885
112.820083,1.47981959
112.833728,1.53104316
112.847373,1.58599043
112.867841,1.67621966
112.881486,1.74220907
112.895131,1.81344773
112.908776,1.89050872
112.929244,2.01847037
112.942889,2.11315231
112.956534,2.21638715
112.970179,2.32923415
112.977002,2.38963819
112.990647,2.5192647
113.004292,2.66195763
113.011115,2.73875628
113.02476,2.90452992
113.038405,3.08850042
113.045227,3.1881453
113.058873,3.40470133
113.065695,3.52250274
113.075929,3.71252968
113.086163,3.92029063
113.096397,4.14802708
113.103219,4.31221594
113.113453,4.57922965
113.123687,4.87414203
113.133921,5.20089036
113.144154,5.5641116
113.154388,5.96929188
113.164622,6.4229527
113.168033,6.58625106
113.174856,6.93288416
113.178267,7.11693065
113.18509,7.50843814
113.191912,7.93407703
113.198735,8.39776027
113.202146,8.64523839
113.208969,9.17454323
113.215791,9.75425916
113.222614,10.3906253
113.229436,11.090802
113.236259,11.8630202
113.243081,12.7167534
113.249904,13.662915
113.256726,14.71408
113.260138,15.2834827
113.263549,15.8847299
113.26696,16.5199724
113.270372,17.1915134
113.273783,17.9018156
113.277194,18.6535092
113.280605,19.4493978
113.284017,20.2924629
113.287428,21.1858669
113.292545,22.6277168
113.295956,23.661969
113.301073,25.3322655
113.304484,26.5307919
113.309601,28.4661393
113.314718,30.5786878
113.319835,32.8816184
113.324952,35.3867701
113.328363,37.17394
113.331775,39.0569525
113.337233,42.2702033
113.339962,43.9679705
113.34542,47.5361133
113.353607,53.2574845
113.369981,65.1572231
113.375439,68.8259022
113.379532,71.3119416
113.382261,72.8000154
113.38499,74.1262692
113.387719,75.2693379
113.390448,76.2098315
113.393177,76.9311058
113.395906,77.4199683
113.4,77.6986811
113.404094,77.4230877
113.406823,76.9362766
113.409552,76.2170124
113.412281,75.2784727
113.41501,74.1372886
113.417739,72.8128389
113.420468,71.3264795
113.424561,68.8428289
113.430019,65.1769741
113.449122,51.3354217
113.45458,47.5637922
113.457309,45.7524155
113.462767,42.2991875
113.465496,40.6621684
113.471637,37.2038671
113.475048,35.4169619
113.478459,33.7240894
113.481871,32.1226508
113.485282,30.6094431
113.488693,29.1808511
113.492104,27.8330005
113.497221,25.9538244
113.502338,24.2336305
113.507455,22.6590394
113.512572,21.2172662
113.517689,19.8963103
113.522806,18.6850494
113.526217,17.9334034
113.531334,16.8827183
113.534745,16.2296774
113.539862,15.3152847
113.543274,14.7459441
113.550096,13.6949158
113.556919,12.748909
113.56033,12.3112916
113.567152,11.4997685
113.573975,10.764876
113.577386,10.4233599
113.584209,9.7872251
113.591031,9.20775899
113.597854,8.67872188
113.604677,8.19466659
113.611499,7.75082833
113.618322,7.34303035
113.625144,6.96760334
113.631967,6.62131665
113.638789,6.30131939
113.649023,5.86518002
113.655846,5.60049163
113.662668,5.35444173
113.672902,5.01671224
113.679725,4.81034037
113.686547,4.61749866
113.696781,4.35115651
113.703603,4.18742561
113.710426,4.03372708
113.72066,3.82028523
113.730894,3.62530377
113.741128,3.44674666
113.754773,3.23119968
113.761595,3.13206741
113.77524,2.94913707
113.782063,2.86465602
113.795708,2.70815908
113.80253,2.63561301
113.816176,2.5007521
113.822998,2.438021
113.836643,2.32103116
113.843466,2.26644213
113.857111,2.16433725
113.877578,2.02694531
113.898046,1.9058497
113.918514,1.79860468
113.932159,1.73379705
113.952627,1.64535425
113.973094,1.5661529
113.993562,1.49496964
114.007207,1.451454
114.027675,1.39142928
114.04132,1.35457573
114.054965,1.32001401
114.082255,1.25705679
114.109545,1.20130344
114.12319,1.1757988
114.150481,1.12897613
114.164126,1.10746411
114.191416,1.06781457
114.232351,1.01570611
114.273286,0.97101492
114.307399,0.938504622
114.341512,0.909651962
114.38927,0.874473731
114.423383,0.852526216
114.457495,0.832852427
114.491608,0.815176145
114.525721,0.799262047
114.559834,0.784908659
114.628059,0.760214418
114.662172,0.749593986
114.730397,0.731238486
114.832736,0.709607861
114.935074,0.693470289
115.003299,0.685108116
115.071525,0.6783181
115.173863,0.670585906
115.242089,0.666803681
115.37854,0.661910542
115.514991,0.659892482
115.719667,0.66096994
115.924344,0.665790591
116.12902,0.673475075
116.401922,0.687217023
116.674824,0.704201533
116.947726,0.723928838
117.220628,0.746111911
117.49353,0.770599019
117.902883,0.811535597
118.175785,0.841656277
118.585138,0.891270046
118.85804,0.927479684
119.130942,0.966383639
119.403844,1.0081795
119.744972,1.06484712
120.051986,1.12046089
120.350473,1.17916675
120.657488,1.24483586
120.990087,1.3227331
121.31629,1.40681436
121.642493,1.49951922
121.978095,1.60515203
122.315619,1.72342651
122.491471,1.7904405
122.657627,1.85750622
122.836565,1.93413275
123.015502,2.01570571
123.19444,2.10265816
123.373377,2.19547196
123.552314,2.29468451
123.756814,2.41667929
123.910189,2.51478113
124.063564,2.61907421
124.216939,2.73009031
124.395877,2.86889739
124.549252,2.99659419
124.702627,3.13312335
124.881564,3.30468862
125.060502,3.49091515
125.213877,3.6635044
125.418376,3.91449394
125.571751,4.1202383
125.776251,4.42104951
125.878501,4.58407805
125.980751,4.75637422
126.083001,4.93865461
126.185251,5.13170647
126.287501,5.33639621
126.389751,5.55367918
126.492001,5.78461085
126.594251,6.03035962
126.696501,6.2922217
126.798751,6.5716382
126.901001,6.87021501
127.003251,7.18974597
127.105501,7.53223983
127.207751,7.89995193
127.310001,8.29542139
127.386688,8.61195011
127.488938,9.06311952
127.591188,9.55088078
127.693438,10.0793014
127.821251,10.8041496
127.923501,11.4421025
128.051313,12.3225875
128.102438,12.7035704
128.179126,13.3091671
128.230251,13.7373612
128.306938,14.4195904
128.358063,14.9031262
128.434751,15.6754757
128.485876,16.2243098
128.557451,17.0425593
128.618801,17.7943279
128.680151,18.597068
128.741501,19.4554889
128.802851,20.3748552
128.864201,21.361068
128.925551,22.4207584
128.986901,23.5613993
129.068701,25.2229321
129.130051,26.5872749
129.211851,28.585634
129.252751,29.6703882
129.293651,30.8180711
129.334551,32.033633
129.37545,33.3225188
129.4368,35.4066245
129.4777,36.906459
129.5186,38.5035267
129.5595,40.2063869
129.6004,42.0245575
129.6413,43.9686465
129.6822,46.0505046
129.7231,48.283403
129.764,50.6822418
129.8049,53.263794
129.86625,57.5208032
129.90715,60.6475597
129.94805,64.0351532
129.98895,67.7132209
130.019625,70.6826276
130.0503,73.8505562
130.0912,78.4145997
130.11165,80.855863
130.15255,86.0906347
130.173,88.8992649
130.2139,94.9414948
130.23435,98.1942173
130.265025,103.392867
130.285475,107.089123
130.31615,113.012479
130.346825,119.435496
130.3775,126.415197
130.408175,134.01685
130.43885,142.315407
130.469525,151.397252
130.5002,161.36231
130.530875,172.326619
130.551325,180.257206
130.571775,188.737169
130.60245,202.599804
130.6229,212.68827
130.64335,223.531112
130.674025,241.376352
130.694475,254.453777
130.714925,268.591461
130.735375,283.903112
130.755825,300.517439
130.776275,318.580459
130.796725,338.258196
130.817175,359.739842
130.837625,383.241452
130.858075,409.010268
130.8683,422.831895
130.88875,452.545947
130.9092,485.316945
130.919425,502.97209
130.934763,531.197356
130.944988,551.264735
130.960325,583.408021
130.97055,606.304384
130.985888,643.048674
130.996113,669.271005
131.01145,711.429704
131.026788,757.289362
131.042125,807.232476
131.057463,861.679156
131.0728,921.08801
131.088138,985.955487
131.103475,1056.81285
131.118813,1134.21961
131.13415,1218.75182
131.149488,1310.98316
131.159713,1377.01834
131.169938,1446.86277
131.180163,1520.63983
131.1955,1638.87134
131.20368,1705.68207
131.22004,1847.05775
131.2364,1998.2815
131.25276,2158.14133
131.31002,2744.45165
131.32229,2862.17726
131.33456,2970.92958
131.34274,3036.83814
131.35092,3096.342
131.3591,3148.5083
131.36728,3192.4719
131.37546,3227.46849
131.38364,3252.86615
131.39182,3268.19284
131.4,3273.15789
131.41227,3261.02269
131.42045,3240.1003
131.42863,3209.34095
131.43681,3169.30638
131.44499,3120.70403
131.45317,3064.3571
131.46135,3001.17186
131.47362,2895.66965
131.48998,2740.0658
131.54724,2153.18976
131.5636,1993.38113
131.57178,1916.64196
131.58814,1770.36294
131.59632,1701.02588
131.6045,1634.29409
131.614725,1554.56066
131.62495,1478.88858
131.635175,1407.20235
131.650512,1306.89677
131.660737,1244.63675
131.670962,1185.88051
131.6863,1103.94724
131.701637,1028.94023
131.716975,960.286429
131.732312,897.434361
131.742537,858.497776
131.757875,804.176929
131.7681,770.487632
131.783437,723.424896
131.793662,694.193433
131.809,653.29223
131.819225,627.844093
131.834562,592.173123
131.844787,569.938139
131.860125,538.712795
131.87035,519.211798
131.8908,483.081767
131.91125,450.402984
131.9317,420.77434
131.95215,393.847348
131.9726,369.318844
131.99305,346.92467
132.0135,326.434226
132.03395,307.645806
132.044175,298.833727
132.064625,282.273659
132.085075,267.01295
132.105525,252.923174
132.11575,246.281402
132.1362,233.73943
132.15665,222.108599
132.187325,206.189472
132.218,191.887566
132.248675,178.995339
132.27935,167.336835
132.310025,156.762207
132.3407,147.143293
132.36115,141.20663
132.391825,132.943569
132.4225,125.375201
132.453175,118.426772
132.473625,114.1064
132.5043,108.050671
132.52475,104.274259
132.56565,97.2855894
132.60655,90.9694792
132.627,88.0372432
132.6679,82.5785801
132.7088,77.6077112
132.72925,75.2873864
132.764992,71.4724433
132.81105,66.9660028
132.85195,63.3093854
132.89285,59.9420359
132.93375,56.8344161
132.97465,53.9606427
133.01555,51.2979601
133.05645,48.8263004
133.09735,46.5279131
133.1587,43.3712571
133.1996,41.4409097
133.2405,39.635858
133.30185,37.1403962
133.34275,35.6046953
133.38365,34.1617793
133.444999,32.1556065
133.506349,30.320188
133.567699,28.6367472
133.629049,27.0890118
133.690399,25.6628241
133.772199,23.929171
133.813099,23.1271679
133.894899,21.6389856
133.935799,20.9479296
133.976699,20.2892945
134.038049,19.3578168
134.089174,18.6294915
134.150524,17.8082368
134.242549,16.6740955
134.314124,15.8649016
134.416374,14.806867
134.518624,13.8507742
134.620874,12.983963
134.723124,12.1956761
134.825374,11.4767266
134.927624,10.8192308
134.978749,10.511367
135.080999,9.9336011
135.183249,9.40196535
135.285499,8.91168586
135.336624,8.68072977
135.489999,8.03901735
135.643374,7.46557346
135.796749,6.95106413
135.950124,6.48769603
136.103499,6.06892138
136.205749,5.81174385
136.359124,5.45541183
136.512499,5.13069197
136.665874,4.83395946
136.768124,4.65012727
136.921499,4.393318
137.023749,4.23367865
137.228249,3.93928031
137.432749,3.67436704
137.534999,3.55175452
137.739498,3.32412932
137.943998,3.11756094
138.148498,2.92953531
138.352998,2.7579023
138.557498,2.60081432
138.761998,2.45667668
138.966498,2.32410717
139.170998,2.20190301
139.375498,2.08901361
139.579998,1.98451803
139.784498,1.88760631
140.091248,1.75491784
140.295748,1.67401561
140.500248,1.59853151
140.806998,1.49444587
141.113748,1.40011339
141.420498,1.31435579
141.727247,1.23616728
142.033997,1.16468518
142.340747,1.09916613
142.647497,1.03896686
143.056497,0.966020859
143.260997,0.932363425
143.669997,0.870060897
143.874497,0.841198409
144.283497,0.787571476
144.487997,0.762637495
144.896997,0.716152321
145.101497,0.694467353
145.510497,0.653914213
145.919496,0.616767388
146.123996,0.599353849
146.532996,0.566639049
146.941996,0.536495534
147.350996,0.508661867
147.964496,0.470748865
148.373496,0.44774696
148.782496,0.426365724
149.191496,0.406457124
149.600496,0.387889618
150.009495,0.370545999
150.418495,0.354321566
150.827495,0.339122555
151.236495,0.324864797
151.645495,0.311472568
152.156745,0.295846055
152.463495,0.287018176
153.076995,0.270487491
153.383745,0.26274295
153.997244,0.248201675
154.610744,0.234813428
155.224244,0.222460191
155.837744,0.211038628
156.144494,0.205648415
156.757994,0.195457567
157.575994,0.182984902
157.984994,0.177182519
158.802993,0.166359702
159.211993,0.161308659
160.029993,0.151858924
160.438993,0.147435754
161.256993,0.139137867
161.665993,0.135243389
162.483992,0.127918813
163.662376,0.118348104
164.743526,0.110461157
165.755992,0.10375312
166.573991,0.0987596605
167.800991,0.0919039903
168.618991,0.0877132716
169.436991,0.0837958728
170.25499,0.0801287612
171.48199,0.0750527491
172.29999,0.0719254211
173.11799,0.0689846208
173.93599,0.0662159597
174.753989,0.0636064037
175.531089,0.0612639102
176.308189,0.0590450838
177.167089,0.0567264148
178.025989,0.0545380863
178.843988,0.0525664622
180.193688,0.0495333304
181.788788,0.0462668134
182.933987,0.0441116118
184.569987,0.0412779531
186.246887,0.0386403562
187.504561,0.0368201627
188.782686,0.0350954802
