energy [eV],cross section [b]
1e-05,310.32578
1.09867509e-05,296.062372
1.19735017e-05,283.600675
1.30468017e-05,271.685098
1.38777338e-05,263.425959
1.47086659e-05,255.876972
1.5955064e-05,245.6793
1.70046422e-05,237.976509
1.85790095e-05,227.670392
1.96285878e-05,221.499783
2.08162556e-05,215.088169
2.21420131e-05,208.549558
2.34677705e-05,202.573162
2.4793528e-05,197.082769
2.62937111e-05,191.377939
2.88056243e-05,182.843348
3.13175374e-05,175.357361
3.42700963e-05,167.633238
3.74429781e-05,160.373496
4.06158599e-05,153.982
4.32877089e-05,149.154196
4.72954824e-05,142.69473
4.99673314e-05,138.827237
5.29907069e-05,134.808692
5.63656091e-05,130.71055
5.97405112e-05,126.964781
6.31154133e-05,123.52362
6.69343405e-05,119.948058
7.33287687e-05,114.598915
7.75917209e-05,111.406364
8.18546731e-05,108.466579
8.993169e-05,103.481159
9.8008707e-05,99.125482
0.000106794169,94.9606877
0.000113595736,92.0739106
0.000120397304,89.4353493
0.000130599655,85.8710056
0.000139190943,83.1786858
0.000152077875,79.5764377
0.000160669163,77.4196538
0.00017039078,75.1786326
0.000181242724,72.8932226
0.000192094668,70.8043206
0.000202946613,68.8852891
0.000215226313,66.8913063
0.000235787496,63.90825
0.000256348678,61.2917074
0.000280516753,58.5919297
0.0002978311,56.8633104
0.00032380262,54.5352013
0.000354330126,52.1330325
0.000376200458,50.5949667
0.000409005957,48.5234956
0.000433753699,47.1189107
0.00046137885,45.6865045
0.000489004001,44.3772616
0.000516629152,43.174487
0.000547888856,41.9247357
0.000600230239,40.0550711
0.000635124495,38.9391914
0.00067001875,37.9116599
0.000736132908,36.1691253
0.000802247067,34.6467018
0.000874160176,33.1909964
0.000957671188,31.7108142
0.0010411822,30.4124944
0.00113934291,29.0728732
0.00120966662,28.2151374
0.00127999033,27.4290971
0.00135031404,26.7052903
0.00143914227,25.8679864
0.00152797051,25.104802
0.00161679875,24.4054097
0.00170562698,23.7613906
0.00187392987,22.6692334
0.00204223276,21.7150334
0.0022252977,20.8026496
0.00243788673,19.8749241
0.00265047576,19.0611832
0.00290035766,18.2215555
0.00307937655,17.6839566
0.00334790489,16.9599164
0.00355047672,16.4689722
0.00377660149,15.9683034
0.00400272627,15.5106835
0.00422885104,15.0902773
0.00448472632,14.653451
0.00477035211,14.2079719
0.00505597789,13.8007965
0.00534160368,13.4267325
0.0058452001,12.8352843
0.00638637538,12.2793939
0.00692755066,11.7899859
0.00761112732,11.2480544
0.00829470398,10.7745776
0.00903823796,10.3218501
0.00961387037,10.0080474
0.0101895028,9.72122661
0.0110529514,9.33377015
0.011780052,9.04110585
0.0125071527,8.77434895
0.0132342533,8.52988977
0.0139613539,8.30478564
0.0153389917,7.92304491
0.0162574169,7.69597635
0.0171758421,7.48737382
0.0187951484,7.15754575
0.020535289,6.84754987
0.0222754295,6.57463151
0.0245438574,6.26342555
0.0260092107,6.08442069
0.0281368427,5.84984977
0.0299877796,5.66643836
0.032764185,5.42104556
0.0346151219,5.27412522
0.0367095806,5.12147085
0.0390475612,4.96579802
0.0413855418,4.82351599
0.0437235223,4.69280985
0.0463691034,4.5570052
0.050798876,4.35385241
0.0552286486,4.17567824
0.0604355023,3.99185888
0.0660308968,3.81911753
0.0716262912,3.66706252
0.0763381115,3.55222866
0.0834058419,3.39861829
0.0904735724,3.26341896
0.0965377931,3.15948753
0.102489451,3.06661814
0.110349954,2.95571447
0.121797945,2.81390445
0.129315685,2.73125708
0.136833424,2.65555652
0.149099118,2.54464703
0.163342982,2.43199113
0.177586846,2.33329967
0.194329402,2.23161994
0.212321304,2.13622858
0.230313206,2.0524214
0.24546399,1.98925094
0.260614773,1.93179134
0.283340949,1.85461871
0.299355605,1.80575068
0.316234135,1.75845173
0.335371599,1.70936395
0.356767996,1.65942542
0.391639366,1.5874103
0.415812539,1.54320147
0.439985711,1.50293146
0.485816063,1.43564344
0.529130421,1.38100442
0.586294665,1.31944435
0.644147341,1.26687642
0.702000018,1.22212076
0.749651802,1.190089
0.816535572,1.15124899
0.856169345,1.13112901
0.93543689,1.09635999
0.986121222,1.07745567
1.04765743,1.05752361
1.1369403,1.03375137
1.20535597,1.01914992
1.28565875,1.00553899
1.39871585,0.992122086
1.49249555,0.985576736
1.63414284,0.982833593
1.73788715,0.985930864
1.88522122,0.997450967
2.0205299,1.01535131
2.133587,1.03581742
2.2466441,1.06154756
2.38128619,1.09956029
2.4727583,1.13035337
2.52928685,1.15156121
2.64234395,1.19940897
2.75540105,1.25527014
2.86845815,1.32027318
2.9249867,1.35663125
3.00788252,1.41515058
3.06630807,1.46047354
3.12283662,1.5078586
3.17936518,1.5590343
3.23589372,1.61435247
3.29242227,1.67421071
3.3772151,1.77351241
3.46200792,1.88584586
3.51853647,1.96903257
3.57506502,2.05973418
3.63159357,2.15882989
3.68812212,2.26733558
3.73051854,2.35559222
3.78613616,2.48135642
3.8294435,2.58799348
3.88597205,2.7400973
3.9425006,2.90873868
3.99902915,3.09636113
4.0555577,3.30588265
4.08382197,3.41992487
4.11208625,3.54081087
4.14035053,3.66909564
4.1686148,3.80539202
4.19687908,3.95037814
4.22514335,4.10480592
4.25340762,4.26951095
4.2816719,4.44542387
4.30993617,4.63358376
4.33820045,4.83515359
4.36646473,5.0514384
4.394729,5.28390675
4.42299327,5.53421582
4.45125755,5.80424141
4.47952182,6.09611339
4.5077861,6.41225826
4.53605038,6.7554501
4.55018251,6.93816547
4.57844679,7.32804418
4.60671106,7.75386272
4.63497534,8.22019066
4.66323961,8.73234918
4.67737175,9.00752031
4.70563603,9.60043255
4.7339003,10.2568687
4.74520601,10.5392863
4.764991,11.0636317
4.78194957,11.5461938
4.79909581,12.068244
4.81304027,12.5203914
4.83565169,13.3115919
4.8469574,13.7366296
4.86956882,14.652324
4.89218024,15.6659024
4.91479166,16.7918516
4.93175022,17.7203214
4.94305593,18.3839306
4.95436164,19.0865089
4.97132021,20.2203397
4.98262592,21.0346656
4.99393163,21.9003308
5.01089019,23.3048602
5.0221959,24.3192259
5.03350161,25.4026077
5.04480732,26.5614041
5.05611304,27.8027704
5.06741874,29.1347277
5.07872445,30.5662912
5.09003016,32.1076208
5.10133588,33.7701998
5.11264158,35.5670449
5.12394729,37.5129578
5.135253,39.6248247
5.14655871,41.9219762
5.15786442,44.4266209
5.16351728,45.7646075
5.17482299,48.629749
5.1861287,51.7742318
5.19178155,53.4626299
5.20308726,57.0978876
5.21439297,61.117902
5.22004583,63.2892248
5.23135154,67.9939771
5.23700439,70.5453763
5.24548368,74.6498047
5.25113653,77.5877327
5.25961582,82.329351
5.26526867,85.7347574
5.27374795,91.2503396
5.28222723,97.3112455
5.29070652,103.990405
5.2991858,111.373064
5.30766508,119.559297
5.31614436,128.667105
5.32179722,135.318961
5.32745007,142.489744
5.3302765,146.286272
5.33592936,154.338333
5.34158221,163.0569
5.34723507,172.514903
5.35006149,177.54662
5.35571435,188.272345
5.3613672,199.966071
5.36702006,212.742247
5.37267291,226.731682
5.37832577,242.084184
5.38397862,258.971631
5.38963148,277.591541
5.39528433,298.17118
5.39811076,309.276199
5.4023504,327.054012
5.40517683,339.710596
5.40941647,360.010836
5.4122429,374.490169
5.41648254,397.756754
5.41930897,414.381329
5.42354861,441.140826
5.42637504,460.291875
5.43061468,491.163803
5.43344111,513.287124
5.43768075,548.990001
5.44192039,587.976481
5.44616003,630.557063
5.45039967,677.053922
5.4532261,710.388137
5.45605253,745.70146
5.46029217,802.57538
5.4631186,843.2081
5.46594502,886.087576
5.47103259,969.045205
5.4744243,1028.46982
5.47781602,1091.07892
5.48120773,1156.65176
5.48459944,1224.82466
5.50042744,1555.83906
5.50494972,1643.30049
5.50834143,1702.46748
5.51060258,1737.82433
5.51286372,1769.27996
5.51512486,1796.32425
5.517386,1818.49493
5.51964714,1835.39604
5.52190829,1846.71474
5.5253,1852.78306
5.52869171,1845.56034
5.53095285,1833.48445
5.533214,1815.84436
5.53547514,1792.95936
5.53773628,1765.23118
5.53999742,1733.12693
5.54225857,1697.16065
5.54565028,1637.15914
5.55017256,1548.74158
5.56600056,1215.72467
5.57052284,1125.13091
5.57278398,1081.63989
5.57730627,998.758496
5.58069798,940.398121
5.58324176,898.820613
5.58606819,854.827094
5.58889462,813.122308
5.59313426,754.732497
5.59596069,718.475357
5.59878711,684.252702
5.60302676,636.527164
5.6072664,592.839559
5.61150604,552.86147
5.61574568,516.274403
5.61857211,493.616961
5.62281175,462.020176
5.62563818,442.432915
5.62987782,415.083269
5.63270424,398.104508
5.63694389,374.359843
5.63977031,359.594181
5.64259674,345.616901
5.64542317,332.378108
5.64966281,313.803659
5.65248924,302.214354
5.65814209,280.766424
5.66379495,261.396127
5.6694478,243.859599
5.67510066,227.945128
5.68075351,213.468708
5.68640637,200.270179
5.69205922,188.209892
5.69771208,177.165844
5.7005385,171.990998
5.70619136,162.275215
5.71184421,153.332649
5.71749707,145.085973
5.7203235,141.201953
5.72597635,133.873707
5.72880278,130.415302
5.73728206,120.786286
5.74576135,112.158891
5.75424063,104.401906
5.76271991,97.4044566
5.77119919,91.0724211
5.77967847,85.3255468
5.78533133,81.7850366
5.79381061,76.8655477
5.79946347,73.8236312
5.80794275,69.5822503
5.8135956,66.9507956
5.82207489,63.2700187
5.82772774,60.9793
5.83620702,57.7657151
5.84185988,55.76004
5.85316559,52.0449114
5.8644713,48.6834464
5.87577701,45.6326119
5.88708272,42.8556669
5.89838843,40.3210992
5.90969414,38.0017647
5.92099985,35.874186
5.93230556,33.9179778
5.94361127,32.115374
5.94926412,31.2667406
5.96056983,29.6660165
5.97187554,28.1835348
5.98883411,26.1572155
6.00013982,24.9238183
6.01144553,23.7745321
6.02840409,22.1922969
6.04536266,20.7610066
6.06189899,19.4930438
6.07927979,18.2800785
6.09623835,17.2012068
6.11319692,16.2139665
6.13015548,15.308334
6.14711405,14.4756143
6.15841976,13.9571947
6.18103118,12.9995794
6.19233689,12.5568699
6.21494831,11.735917
6.23755973,10.9920084
6.24886544,10.6459874
6.26017115,10.3158561
6.27712971,9.84839001
6.29408828,9.41162757
6.30539399,9.13620802
6.33083184,8.55856233
6.35909611,7.97803844
6.37322825,7.7094305
6.40149253,7.21093349
6.4297568,6.75876379
6.45802107,6.34739132
6.47215321,6.15549809
6.50041749,5.79666177
6.51454962,5.62877588
6.5428139,5.31395392
6.55694604,5.16625787
6.58521031,4.88858334
6.59934245,4.75798684
6.62760672,4.51187728
6.64173886,4.39585754
6.68413527,4.07321895
6.72653169,3.78457274
6.7689281,3.52534204
6.79719237,3.36694391
6.83958879,3.14852089
6.86785306,3.01444038
6.91024947,2.8287524
6.93851375,2.7142934
6.98091016,2.55516314
7.00917444,2.456707
7.03743871,2.36382417
7.06570299,2.27610601
7.1080994,2.15340784
7.13636368,2.07704458
7.19289222,1.93604286
7.24942077,1.80897595
7.30594933,1.69408609
7.36247787,1.58988317
7.41900642,1.49509741
7.47553498,1.40864146
7.53206352,1.32957993
7.58449287,1.26215449
7.63282301,1.20453234
7.6733849,1.15923261
7.72991345,1.10035012
7.81470627,1.02032365
7.87123483,0.971883607
7.92776337,0.926941287
8.0125562,0.865392088
8.09734902,0.810058371
8.18214185,0.760150259
8.26693467,0.71499942
8.3517275,0.674037405
8.43652033,0.636778338
8.52131315,0.602805015
8.60610598,0.571757652
8.6908988,0.543324718
8.8039559,0.509018117
8.86048445,0.49325364
8.97354155,0.464202602
9.08659865,0.438111681
9.1431272,0.426062635
9.2561843,0.403760637
9.34097713,0.38846977
9.42576995,0.374294356
9.53882705,0.356972545
9.67179864,0.338675382
9.8214698,0.320456133
9.99105545,0.302476925
10.1041125,0.291885749
10.2736982,0.277860991
10.3867553,0.269640052
10.5563409,0.258840931
10.669398,0.252585016
10.7824552,0.247031469
10.8955122,0.242142988
11.0253,0.237311012
11.1550878,0.233276621
11.3246734,0.229160233
11.4377305,0.227123722
11.6073162,0.225114298
11.7769018,0.224359469
11.9464875,0.224882289
12.1098947,0.226640911
12.2856588,0.229989166
12.4552444,0.234765886
12.62483,0.241216501
12.7378872,0.246544909
12.9074728,0.256267222
13.0205299,0.264037869
13.0770585,0.26835144
13.1901156,0.27791732
13.2466441,0.283207142
13.3597012,0.294907827
13.4727583,0.308270913
13.5292869,0.315648086
13.642344,0.331964046
13.6988725,0.340981559
13.8119296,0.360964226
13.8967224,0.377867788
13.9815153,0.396650951
14.0380438,0.410340862
14.0945723,0.42506431
14.1511009,0.440917969
14.2076295,0.458010464
14.264158,0.476464168
14.3206866,0.496417336
14.3772151,0.518026633
14.4620079,0.553942107
14.5185365,0.580526732
14.575065,0.609509948
14.6315936,0.641178374
14.6598579,0.658121085
14.7163864,0.69445462
14.772915,0.734404403
14.8011792,0.75588379
14.8577078,0.802192811
14.9142363,0.853494462
14.9425006,0.88124126
14.9990292,0.94144756
15.0555577,1.00875005
15.083822,1.04541231
15.1262184,1.1046284
15.1544827,1.14719286
15.1968791,1.21619885
15.2251434,1.26599295
15.2675398,1.34705543
15.295804,1.40580282
15.3382005,1.50188591
15.3805969,1.6087934
15.4130728,1.69904493
15.4512576,1.81575104
15.4653897,1.86215634
15.493654,1.96071796
15.5219182,2.06767082
15.5360504,2.12459432
15.5643147,2.24601374
15.5925789,2.3785546
15.6067111,2.44942434
15.6349753,2.60133959
15.6491075,2.68282331
15.6773718,2.85807579
15.6915039,2.95240047
15.7197682,3.15601995
15.7395532,3.31168659
15.764991,3.52977834
15.7904289,3.77066346
15.8130403,4.00656228
15.8356517,4.26576878
15.8582631,4.55145303
15.8808745,4.8673419
15.903486,5.21784049
15.9260974,5.60818527
15.9374031,5.82021067
15.9543616,6.16180854
15.9656674,6.40671796
15.9769731,6.66668123
15.9882788,6.94295442
16.0052373,7.39102526
16.0165431,7.71448672
16.0335016,8.24131639
16.0448073,8.62331105
16.0617659,9.24841396
16.0730716,9.70389328
16.0900302,10.4531871
16.1013359,11.0021678
16.1069887,11.2930657
16.1182944,11.9106513
16.1296002,12.5804055
16.135253,12.9366898
16.1465587,13.6962276
16.1522116,14.1013252
16.1635173,14.9673098
16.1691701,15.4304845
16.1804758,16.4235935
16.1861287,16.9563919
16.1974344,18.1025222
16.2030873,18.7194755
16.214393,20.0513863
16.2256987,21.5297421
16.234178,22.7476955
16.2426573,24.0711081
16.2483101,25.0180015
16.253963,26.0213209
16.2624422,27.642073
16.2680951,28.8071626
16.273748,30.0465337
16.2794008,31.3665206
16.2850537,32.774133
16.2907065,34.2771424
16.2963594,35.8841807
16.3020122,37.6048541
16.3076651,39.449874
16.3133179,41.4312082
16.3189708,43.5622564
16.3246236,45.8580525
16.3302765,48.3355005
16.3359294,51.013649
16.3387558,52.4346025
16.3444086,55.4550078
16.3500615,58.7353477
16.3528879,60.4820429
16.3585408,64.2087425
16.3641936,68.2768192
16.3670201,70.4514244
16.3726729,75.1099961
16.3783258,80.223456
16.3811522,82.9684001
16.3868051,88.8745278
16.3896315,92.053393
16.3952843,98.9118758
16.3981108,102.613345
16.4023504,108.539709
16.40659,114.955234
16.4108297,121.909716
16.4150693,129.45844
16.419309,137.662682
16.4235486,146.590193
16.4277883,156.315615
16.4320279,166.920775
16.4348543,174.523331
16.4376807,182.584494
16.4419204,195.600914
16.4447468,204.94002
16.4475732,214.845492
16.4503997,225.349731
16.4532261,236.485086
16.4560525,248.283191
16.458879,260.774104
16.4617054,273.98521
16.465945,295.20175
16.469902,316.558728
16.4744243,342.812592
16.477816,363.756377
16.4823383,393.212915
16.4868606,424.126721
16.4992969,511.718338
16.5038192,541.689531
16.5072109,562.267226
16.509472,574.739821
16.5117331,586.001838
16.5139943,595.876689
16.5162554,604.200531
16.5185166,610.828541
16.5207777,615.640886
16.5230389,618.547939
16.5254131,619.489728
16.5275611,618.461703
16.5298223,615.469251
16.533214,607.438252
16.5354751,599.865772
16.5377363,590.670509
16.5399974,580.008115
16.5422586,568.050029
16.5456503,548.080428
16.5501726,518.623001
16.5660006,407.496323
16.5705228,377.233024
16.572784,362.700668
16.5773063,334.999406
16.5795674,321.868986
16.5818286,309.232063
16.584655,294.133258
16.5874814,279.803818
16.5903078,266.229456
16.5945475,247.236396
16.5973739,235.447752
16.6002003,224.322865
16.60444,208.810255
16.6086796,194.609709
16.6129193,181.612638
16.6171589,169.714534
16.6199853,162.344039
16.624225,152.061839
16.6270514,145.685201
16.631291,136.777667
16.6341175,131.245297
16.6383571,123.504651
16.6411835,118.68875
16.6454232,111.938542
16.6482496,107.731086
16.6524892,101.822671
16.6553157,98.1328837
16.6609685,91.2970675
16.6666214,85.1146549
16.6722742,79.5096716
16.6779271,74.416114
16.6835799,69.7765663
16.6892328,65.5410025
16.6948856,61.6657544
16.7005385,58.1126274
16.7033649,56.4462315
16.7090178,53.3148087
16.7146706,50.4292661
16.7203235,47.7652897
16.7231499,46.5095767
16.7288028,44.1384603
16.7344556,41.9397298
16.7429349,38.930545
16.7514142,36.2272973
16.7598935,33.790706
16.7683728,31.5874707
16.776852,29.5892338
16.7853313,27.7717433
16.7909842,26.6500892
16.7994635,25.0889976
16.8079428,23.6592644
16.816422,22.3467469
16.8220749,21.5307077
16.8305542,20.3869647
16.836207,19.6737615
16.8475127,18.3539996
16.8588184,17.1613663
16.8644713,16.6077315
16.875777,15.5771587
16.8870827,14.6387714
16.8983884,13.7819836
16.9096941,12.9976743
16.9209999,12.2779536
16.9323056,11.615969
16.9436113,11.0057476
16.954917,10.4420647
16.9662227,9.92033453
16.9775284,9.43651959
16.9888341,8.98705397
17.0057927,8.37044926
17.0170984,7.99379829
17.0284041,7.64188785
17.0453627,7.15585637
17.0623212,6.71457191
17.0792798,6.31272897
17.0962384,5.9457828
17.1131969,5.60982266
17.1301555,5.30146885
17.147114,5.01778873
17.1697255,4.67356195
17.1810312,4.51455291
17.2036426,4.21990177
17.2149483,4.0832593
17.2375597,3.82913001
17.2488654,3.71086025
17.2601712,3.59798096
17.2771297,3.43807204
17.305394,3.19427705
17.3308318,2.9963664
17.3590961,2.79729854
17.3873604,2.61744016
17.4156247,2.45440296
17.4438889,2.30615792
17.4721532,2.17097242
17.5004175,2.04735982
17.5145496,1.98948587
17.5428139,1.88088506
17.5710782,1.78096815
17.5993425,1.68883528
17.6134746,1.64543815
17.655871,1.52487267
17.6982674,1.41715102
17.7406638,1.32051471
17.7830602,1.2334958
17.8254566,1.15486117
17.8537209,1.10657471
17.8961173,1.03967708
17.9385138,0.978719773
17.9809102,0.92302059
18.0091744,0.88851561
18.0515709,0.840315067
18.0798351,0.810353407
18.1363637,0.755101285
18.1928922,0.705383759
18.2211565,0.682372445
18.2776851,0.639652136
18.3200815,0.610231344
18.3624779,0.582827893
18.4190064,0.549119255
18.475535,0.518304507
18.5320635,0.490061464
18.5885921,0.464111508
18.6451206,0.440212716
18.7016492,0.418154209
18.7581777,0.3977515
18.8147063,0.378842631
18.8712348,0.361284951
18.9277634,0.344952425
18.9842919,0.329733363
19.0408205,0.315528509
19.097349,0.302249415
19.1821419,0.283896006
19.2386704,0.272603371
19.2951989,0.261993848
19.3799918,0.247243148
19.4783624,0.231692903
19.5778417,0.217466237
19.6908988,0.202891379
19.7474274,0.196169659
19.8604845,0.183731276
19.917013,0.177970328
20.0300701,0.167267474
20.0865987,0.162291189
20.1996558,0.153012784
20.2561843,0.148683651
20.3409771,0.142543389
20.4257699,0.13679476
20.5388271,0.12968256
20.6518842,0.123139278
20.7084127,0.120061945
20.8214698,0.114262168
20.9910555,0.106361214
21.1041125,0.101565951
21.2736982,0.0949927338
21.3867553,0.0909795572
21.556341,0.0854480604
21.6693981,0.0820530494
21.8389837,0.0773505872
21.9520408,0.0744507851
22.0650979,0.071721492
22.178155,0.0691492819
22.3477406,0.0655593028
22.4325335,0.0638752216
22.6021191,0.0607086444
22.686912,0.0592188833
22.9412904,0.055085095
23.1956689,0.0513964795
23.4500474,0.0480895972
23.6478973,0.0457476079
23.8740115,0.0432880895
24.1001257,0.0410344163
24.3262399,0.0389635
24.5301105,0.0372364257
24.7562247,0.0354603773
24.8915254,0.0344616721
25.1176396,0.0328902443
25.3437538,0.0314305064
25.569868,0.0300717308
25.7959822,0.0288044698
26.1351535,0.02705717
26.3612677,0.0259842124
26.5873819,0.0249774271
26.9265532,0.0235793548
27.2657245,0.0223014928
27.6048958,0.0211299248
28.0571242,0.0197128272
28.5093526,0.0184399181
28.9389696,0.0173462916
29.1763895,0.0167849124
29.4138094,0.0162514535
29.8660378,0.0153058972
30.1599863,0.0147364539
30.4539347,0.0141992963
30.7704946,0.0136540805
31.0995155,0.0131210403
31.6862571,0.0122470362
32.0339077,0.0117708227
32.3872111,0.0113154412
32.8620509,0.0107447707
33.5743107,0.00996787772
34.0491505,0.00949658244
34.614436,0.00897841335
35.2037461,0.00848259031
35.7930563,0.00802707474
36.1859297,0.00774361319
36.7031659,0.00739285672
37.0889733,0.0071465582
37.7291591,0.0067642166
38.1559497,0.00652610289
38.7212352,0.00622954438
39.2828419,0.00595440179
39.7750664,0.00572787507
40.267291,0.00551393202
40.7703951,0.00530729773
41.2734992,0.0051119401
