energy [eV],cross section [b]
1e-05,1454.86219
1.06231466e-05,1411.5469
1.15578665e-05,1353.26588
1.24925863e-05,1301.65489
1.32710576e-05,1262.90104
1.40495288e-05,1227.41453
1.52172357e-05,1179.38158
1.60927273e-05,1146.85222
1.70652392e-05,1113.69473
1.80377512e-05,1083.25631
1.90102631e-05,1055.18456
2.0711438e-05,1010.92162
2.19263569e-05,982.515603
2.31412758e-05,956.377018
2.51150687e-05,918.027591
2.73916906e-05,879.050166
2.96683126e-05,844.650058
3.23232463e-05,809.218756
3.4219306e-05,786.480502
3.70633956e-05,755.703018
3.919576e-05,734.859587
4.1564429e-05,713.613679
4.51174325e-05,684.939381
4.74861015e-05,667.638287
5.04451817e-05,647.761087
5.34042618e-05,629.559744
5.6363342e-05,612.811277
5.93224222e-05,597.332145
6.30190787e-05,579.548198
6.85640634e-05,555.619783
7.41090481e-05,534.429899
8.10361681e-05,511.078255
8.79632882e-05,490.542468
9.54659563e-05,470.872799
0.000101235133,457.259403
0.000109888897,438.88625
0.00011926167,421.288009
0.000126468863,409.108253
0.000133676057,397.927307
0.00014088325,387.61572
0.000148988671,376.925058
0.00015799232,366.027975
0.000166995968,356.024519
0.000175999617,346.79887
0.000191749326,332.252088
0.000208621155,318.534632
0.000225492983,306.387118
0.000246570261,293.00036
0.000267647538,281.227871
0.000290476046,269.951925
0.000308030027,262.14785
0.000325584007,254.983766
0.000351914978,245.260179
0.000373844439,237.958925
0.000395773901,231.273263
0.000417703363,225.121287
0.000439632824,219.435575
0.000480726178,209.848611
0.000508121747,204.114108
0.000535517317,198.8255
0.000583439253,190.486585
0.00063477548,182.623121
0.000686111707,175.659658
0.000750243932,167.985856
0.000814376157,161.237463
0.000883836885,154.773752
0.000937248709,150.300252
0.000990660533,146.193635
0.00107077827,140.619893
0.00113750345,136.434712
0.00120422863,132.602424
0.00127095381,129.076076
0.001337679,125.817017
0.00146271451,120.321812
0.00154607152,117.034858
0.00162942853,114.003514
0.0017752415,109.223842
0.00193144319,104.716762
0.00208764489,100.725602
0.00228278121,96.3273901
0.00241287209,93.6966273
0.0026080084,90.1260568
0.00277052556,87.445052
0.00301430128,83.837859
0.00325807701,80.643622
0.00346110297,78.2452092
0.00366412893,76.0490796
0.00386715488,74.0283166
0.00407018084,72.1607646
0.00432381277,70.0152161
0.00470426066,67.1285135
0.00495789259,65.3916148
0.00524313449,63.5909412
0.0057184123,60.8956923
0.00619369012,58.517145
0.006747946,56.0675029
0.00714377594,54.4955531
0.00773752085,52.3680036
0.00842992979,50.1769083
0.00892442377,48.7708976
0.00966616472,46.8679768
0.0102222871,45.5794005
0.010840038,44.2660695
0.0114577889,43.0605614
0.0120755397,41.9488986
0.0127702805,40.796493
0.0139278764,39.071729
0.014699607,38.0370593
0.0154713376,37.0809283
0.0169174742,35.4690361
0.0183636109,34.0518567
0.0199299016,32.6947908
0.0211343007,31.7557841
0.0229408995,30.4887849
0.0247226493,29.3781693
0.0265159307,28.3757024
0.0277318614,27.7521914
0.0301637227,26.6206061
0.0320433648,25.8360242
0.0339230069,25.1178244
0.035802649,24.4571688
0.0376822911,23.8467831
0.0412045297,22.8180584
0.0435526888,22.2030376
0.0459008479,21.6360725
0.0500083855,20.7426035
0.0544085725,19.9007131
0.0588087595,19.1557684
0.0643057311,18.3355648
0.0698027028,17.6149978
0.075756397,16.9255584
0.0803344898,16.4488732
0.0849125827,16.0116607
0.0894906755,15.6087981
0.09514,15.1527809
0.100019152,14.7908157
0.104898305,14.4547335
0.11465661,13.8490022
0.125373791,13.2682389
0.132518579,12.9214996
0.139663366,12.6022031
0.152161447,12.0997962
0.165549979,11.6273755
0.17893851,11.2102827
0.190089002,10.8979838
0.20681474,10.47916
0.223540478,10.1097794
0.237470327,9.83348755
0.251400175,9.58139919
0.272294948,9.24175237
0.287847388,9.01447951
0.30502242,8.78504661
0.322197452,8.57527214
0.34796,8.29207672
0.381477173,7.97053812
0.403216752,7.78551685
0.42495633,7.61618252
0.462984475,7.35208944
0.503722008,7.10688322
0.558539656,6.82603904
0.60078,6.64066897
0.660323087,6.4161554
0.701363088,6.28224976
0.764940003,6.10247778
0.807324613,5.99856193
0.879588323,5.84602027
0.931564968,5.7528111
1.00952994,5.63491474
1.08396329,5.54345926
1.16133907,5.46714676
1.2711772,5.38707774
1.34266813,5.35062751
1.422445,5.32301412
1.548855,5.30495116
1.6566372,5.31247128
1.801675,5.35373597
1.928085,5.41787671
2.06956833,5.52068415
2.180905,5.62519617
2.24411,5.69413702
2.37052,5.85398942
2.433725,5.94548678
2.54117805,6.12004195
2.686545,6.39775426
2.812955,6.68294189
2.939365,7.01472696
3.00257,7.20026886
3.0973775,7.50608286
3.17942294,7.80020362
3.22986588,7.99602173
3.318595,8.3711042
3.3818,8.66451534
3.445005,8.98216301
3.50821,9.32649207
3.6030175,9.89920265
3.6662225,10.3232789
3.7294275,10.7856373
3.7926325,11.2907572
3.8558375,11.8438139
3.9190425,12.4508121
3.9822475,13.1187499
4.03493784,13.7280214
4.1086575,14.6716736
4.1718625,15.5777194
4.2350675,16.5875477
4.2982725,17.717437
4.34567625,18.6553063
4.37727875,19.3289336
4.40888125,20.0450482
4.44048375,20.8072851
4.47208625,21.6196788
4.50368875,22.4867179
4.53529125,23.4134075
4.56689375,24.4053422
4.59849625,25.4687919
4.63009875,26.6108017
4.66170125,27.8393105
4.69330375,29.1632899
4.72490625,30.5929105
4.75650875,32.1397395
4.78811125,33.816977
4.81971375,35.6397416
4.85131625,37.6254144
4.88291875,39.7940585
4.91452125,42.1689309
4.94612375,44.7771138
4.961925,46.1783938
4.9935275,49.1976538
5.02513,52.5402691
5.04068093,54.3181146
5.05989275,56.6481945
5.07885425,59.1052532
5.100976,62.1889346
5.113617,64.0654015
5.138899,68.0936622
5.15154,70.2576163
5.176822,74.9194863
5.202104,80.0795189
5.227386,85.8114254
5.2463475,90.5378759
5.2589885,93.9159587
5.2716295,97.4923503
5.290591,103.263854
5.303232,107.408901
5.315873,111.815195
5.3348345,118.964182
5.3474755,124.127139
5.3601165,129.641276
5.3727575,135.539148
5.3853985,141.857157
5.3980395,148.63611
5.4106805,155.921872
5.4233215,163.76613
5.4359625,172.227304
5.4486035,181.371614
5.4612445,191.274361
5.4738855,202.021448
5.4865265,213.711214
5.4991675,226.456637
5.505488,233.265175
5.518129,247.844658
5.53077,263.845294
5.5370905,272.436555
5.5497315,290.933976
5.556052,300.900108
5.56553275,316.840482
5.57185325,328.183064
5.581334,346.375144
5.5876545,359.356758
5.59713525,380.240004
5.606616,402.993692
5.61609675,427.844796
5.62241725,445.705116
5.631898,474.653921
5.64137875,506.494169
5.6508595,541.616457
5.66034025,580.477988
5.669821,623.61627
5.67930175,671.666074
5.68562225,706.794198
5.69194275,744.694617
5.695103,764.773743
5.7014235,807.388367
5.707744,853.573014
5.7140645,903.722643
5.71722475,930.422166
5.72354525,987.379163
5.72986575,1049.54146
5.73618625,1117.53123
5.74250675,1192.06035
5.74882725,1273.94479
5.75514775,1364.12155
5.76146825,1463.66809
5.76778875,1573.82478
5.770949,1633.32026
5.77568938,1728.63777
5.77884962,1796.54798
5.78200987,1868.22357
5.78517013,1943.91767
5.7899105,2065.5917
5.79307075,2152.55976
5.79781113,2292.59027
5.80097137,2392.83481
5.80571175,2554.47166
5.808872,2670.32723
5.81361237,2857.32464
5.81835275,3061.53931
5.82309312,3284.57354
5.8278335,3528.0755
5.83099375,3702.59331
5.834154,3887.40576
5.83889438,4184.86528
5.84205462,4397.19967
5.84521487,4621.07492
5.8480591,4832.55026
5.8518514,5129.21487
5.8569078,5550.17385
5.859436,5770.89593
5.8644924,6230.27074
5.8821898,7913.08564
5.8872462,8357.56596
5.8910385,8658.18361
5.8935667,8837.78526
5.8960949,8997.53154
5.8986231,9134.83027
5.9011513,9247.3332
5.9036795,9333.02975
5.9062077,9390.33262
5.91,9420.80598
5.9125282,9403.54291
5.9150564,9356.49494
5.9175846,9280.53197
5.9201128,9177.04341
5.922641,9047.87534
5.9251692,8895.25047
5.9276974,8721.67703
5.9302256,8529.85311
5.9340179,8214.01422
5.9390743,7754.96399
5.9529794,6417.29631
5.9580358,5946.15637
5.9630922,5497.5972
5.9681486,5076.24855
5.9719409,4779.57049
5.97636525,4454.92982
5.98110562,4132.58637
5.98426588,3931.95205
5.98742613,3742.31409
5.99058637,3563.24795
5.99374662,3394.2895
5.99690688,3234.9516
6.00006712,3084.73712
6.00322737,2943.14884
6.00796775,2745.87254
6.011128,2623.73625
6.01428825,2508.57651
6.01902863,2347.98253
6.02218887,2248.42896
6.02534912,2154.44136
6.0300895,2023.12898
6.03482987,1902.4475
6.03957025,1791.39816
6.04431062,1689.07892
6.049051,1594.67683
6.0553715,1479.8691
6.05853175,1426.77118
6.06485225,1328.32625
6.0680125,1282.66975
6.074333,1197.79261
6.07749325,1158.32153
6.08381375,1084.75034
6.09013425,1017.67412
6.0932945,986.34614
6.099615,927.710005
6.1059355,873.95853
6.112256,824.58337
6.1185765,779.138043
6.12173675,757.764362
6.12805725,717.491571
6.13437775,680.250863
6.14069825,645.753677
6.14701875,613.744004
6.15333925,583.994215
6.15965975,556.301476
6.16598025,530.484671
6.17230075,506.381734
6.17862125,483.847358
6.188102,452.704897
6.1944225,433.548919
6.200743,415.558431
6.21022375,390.561191
6.21654425,375.104581
6.22286475,360.530285
6.2323455,340.182845
6.24182625,321.480718
6.251307,304.253535
6.263948,283.323212
6.2702685,273.645611
6.2829095,255.698084
6.28923,247.368997
6.29949258,234.673796
6.3081915,224.651518
6.3208325,211.177685
6.327153,204.884269
6.33663375,195.95141
6.3461145,187.582197
6.3587555,177.221189
6.3713965,167.684294
6.377717,163.198087
6.390358,154.74245
6.4093195,143.225119
6.4219605,136.238023
6.440922,126.667209
6.453563,120.829548
6.466204,115.381526
6.478845,110.289478
6.491486,105.52328
6.504127,101.055909
6.516768,96.8630737
6.529409,92.9228905
6.54205,89.2156019
6.554691,85.7233359
6.567332,82.4298946
6.579973,79.32057
6.592614,76.3819835
6.605255,73.6019445
6.630537,68.4739581
6.655819,63.8584919
6.66846,61.722013
6.693742,57.755449
6.706383,55.9126017
6.731665,52.479474
6.7506265,50.1060031
6.769588,47.8884741
6.7885495,45.8136095
6.81067125,43.5574399
6.8264725,42.045487
6.858075,39.2465797
6.87387625,37.9499063
6.90547875,35.5406657
6.93708125,33.3520755
6.9528825,32.3322571
6.984485,30.427134
7.0160875,28.6844784
7.04769,27.0864544
7.0792925,25.6175992
7.110895,24.2644552
7.1424975,23.0152667
7.1741,21.8597284
7.2057025,20.7887762
7.237305,19.7944126
7.28470875,18.4312095
7.31631125,17.5990651
7.34791375,16.8219951
7.3953175,15.7494734
7.42692,15.0905146
7.4585225,14.4721465
7.50592625,13.6137039
7.55333,12.8297376
7.60073375,12.1119454
7.6481375,11.4531461
7.69237,10.8861129
7.7299088,10.4375966
7.78891184,9.78727827
7.84791488,9.19664893
7.88682108,8.83639944
7.93641944,8.40754183
7.96592096,8.16737332
8.024924,7.71751751
8.05442552,7.50670985
8.11342856,7.11081465
8.1724316,6.74623481
8.20193312,6.5746792
8.26093616,6.25124042
8.34944072,5.81052621
8.40844376,5.5430981
8.49694832,5.17675874
8.55595136,4.95334679
8.64445592,4.64592879
8.70345896,4.45768594
8.79196352,4.19779211
8.85096656,4.038245
8.9099696,3.88883659
8.96897264,3.74902869
9.02797568,3.61849524
9.09877933,3.47414313
9.15778237,3.36493485
9.2049848,3.28636332
9.25218723,3.21859746
9.28758906,3.17865744
9.31709058,3.15717921
9.34069179,3.15282626
9.36429301,3.16792761
9.38199392,3.20088309
9.39084438,3.22826679
9.39674468,3.25209218
9.40559514,3.29865355
9.41149544,3.33885782
9.41739574,3.38846346
9.42329605,3.44985039
9.42919635,3.52614276
9.4321465,3.57112065
9.43804681,3.6779177
9.44247204,3.77589975
9.44689726,3.8929087
9.45132249,4.03307465
9.45574772,4.20135106
9.45869787,4.33196143
9.46164802,4.47945396
9.4631231,4.56011735
9.46607325,4.73639842
9.46754833,4.83241327
9.47049848,5.04093685
9.47403866,5.3206065
9.47639878,5.52414737
9.47875891,5.73959216
9.48760936,6.5854269
9.48937945,6.74093685
9.49114954,6.88279476
9.49350967,7.04296597
9.49586979,7.16080537
9.49822991,7.22802931
9.50011801,7.24177992
9.50236012,7.21069133
9.50413021,7.15094078
9.50649033,7.02738199
9.50885046,6.86139187
9.51062055,6.71509221
9.51298067,6.49943563
9.52242116,5.57330736
9.52478128,5.35695866
9.5271414,5.15340046
9.52950152,4.96377797
9.53245167,4.74680887
9.53540182,4.55159353
9.5368769,4.46175218
9.53982705,4.29656617
9.54130213,4.22076529
9.54572736,4.01773021
9.55015258,3.84653852
9.55457781,3.70170813
9.55900304,3.57857134
9.56490334,3.44155813
9.57080365,3.32907172
9.57670395,3.23563613
9.58260426,3.15712168
9.59145471,3.06069779
9.59735502,3.00738264
9.60620547,2.93981154
9.61505593,2.88366874
9.62390638,2.83613994
9.63275684,2.79521662
9.64455745,2.74846176
9.66520851,2.68180608
9.69471003,2.60761361
9.72421155,2.54793781
9.75961338,2.48749669
9.80681581,2.41818518
9.85401824,2.35680289
9.9425228,2.25469255
10.0310274,2.16368335
10.1195319,2.08060437
10.2080365,2.00387884
10.296541,1.93255871
10.3850456,1.86599037
10.5620547,1.74522545
10.6800608,1.67271789
10.7980669,1.60581038
10.975076,1.51473697
11.1520851,1.43342643
11.3290942,1.36058591
11.4471003,1.31619482
11.5651064,1.27481622
11.6831125,1.23620711
11.8011186,1.20015026
11.9781277,1.15043005
12.2141398,1.09141188
12.450152,1.0396776
12.6271611,1.00509084
12.8041702,0.97374616
13.0580897,0.933885871
13.2889894,0.902339316
13.4659899,0.880906618
13.7314907,0.852851574
13.9379914,0.834178492
14.1739921,0.815976162
14.4099928,0.800937692
14.7639939,0.784017936
14.9999946,0.776380912
15.2359953,0.771628327
15.471996,0.769790314
15.7079968,0.770952557
15.9439975,0.775272086
16.1799982,0.783033324
16.4041989,0.794267567
16.5575994,0.805946533
16.6106995,0.812426213
16.6519996,0.820613088
16.6814997,0.83123673
16.6932998,0.838053743
16.7021498,0.84491487
16.7109998,0.854024193
16.7168998,0.861849787
16.7257499,0.877310828
16.7316499,0.890946684
16.7375499,0.908019582
16.7428599,0.926771732
16.7475799,0.946135152
16.75761,0.991436183
16.76174,1.00767981
16.76587,1.01903883
16.770118,1.02336199
16.77354,1.02074539
16.77767,1.01100085
16.78239,0.993588393
16.7936001,0.945108153
16.7995001,0.923024953
16.8054001,0.904971662
16.8142501,0.884704033
16.8231002,0.870675483
16.8319502,0.860940473
16.8437502,0.852311891
16.8555503,0.846833951
16.8703003,0.842663798
16.8909504,0.839707471
16.9411005,0.838804666
17.0296008,0.844366746
17.1476012,0.85600014
17.2715015,0.870651652
17.3895019,0.886445459
17.5075022,0.904004314
17.6255026,0.923413723
17.7140029,0.939265379
17.856998,0.967419464
17.9749982,0.993234296
18.0929984,1.0216334
18.2699988,1.06969893
18.4174991,1.11554816
18.5059993,1.14604565
18.5885994,1.17698421
18.6593996,1.20609776
18.7154497,1.23217944
18.7449498,1.2482643
18.7685498,1.26381851
18.7891999,1.28167001
18.8039499,1.2994728
18.8157499,1.31952467
18.8245999,1.34010424
18.8340399,1.36932883
18.85174,1.4364478
18.85587,1.44706461
18.860236,1.45226018
18.86413,1.45104509
18.86885,1.44309673
18.8859601,1.3942588
18.8954001,1.37405617
18.9072001,1.35906816
18.9190001,1.35190168
18.9367002,1.34938297
18.9573502,1.3528044
18.9868503,1.36307606
19.0252003,1.38065741
19.0960005,1.41868465
19.1786006,1.46837693
19.2730008,1.53101084
19.361501,1.59554916
19.448989,1.66545338
19.5374909,1.74318919
19.6141924,1.81724005
19.6849939,1.89235165
19.7557954,1.97635067
19.7911961,2.02346505
19.8206967,2.06710393
19.8442972,2.10672473
19.8649476,2.14723603
19.882648,2.18946025
19.8973983,2.23381769
19.9091985,2.27942207
19.9180487,2.32297825
19.9268989,2.37866725
19.932799,2.42527631
19.9357491,2.45223994
19.9416492,2.51513231
19.9445993,2.55176693
19.9504994,2.63700397
19.9563995,2.73900824
19.9676097,2.96011174
19.9717398,3.03204394
19.9740999,3.06472973
19.9758699,3.08376485
19.97764,3.09737535
19.979882,3.10614497
19.98177,3.10594191
19.9841301,3.0961752
19.9864901,3.07678072
19.9888502,3.0493297
19.9929803,2.98773184
20.0047805,2.79138117
20.0083206,2.74064082
20.0124507,2.68911681
20.0183508,2.62942695
20.0213009,2.60511066
20.027201,2.56579689
20.0360512,2.52521072
20.0419513,2.5072502
20.0478514,2.49465604
20.0626017,2.4794898
20.077352,2.47912201
20.1039026,2.4981714
20.1393033,2.54311345
20.1806041,2.60936413
20.2396054,2.71880124
20.2986066,2.84129864
20.3576078,2.97589122
20.4225091,3.1384412
20.4815104,3.30052936
20.511011,3.3871376
20.5700122,3.57253306
20.5995128,3.67180118
20.658514,3.88484337
20.6880146,3.99923513
20.7470159,4.24550782
20.7765165,4.37818002
20.8355177,4.66484223
20.8650183,4.81985359
20.9240195,5.15615211
20.9682704,5.434025
20.997771,5.63292442
21.0272717,5.84376198
21.0715226,6.18455659
21.1010232,6.42971839
21.1305238,6.69069334
21.1600244,6.96886915
21.189525,7.26578933
21.2190256,7.58317472
21.245,7.88108815
21.2753359,8.25295371
21.3056717,8.65308621
21.3215181,8.87430842
21.353211,9.34414738
21.3690574,9.59378043
21.4007503,10.1252876
21.4324431,10.7040201
21.4641359,11.3357404
21.4799824,11.6735151
21.5116752,12.3975519
21.5433681,13.193345
21.5750609,14.0706943
21.6067538,15.0411303
21.6352773,16.0053346
21.6669702,17.1923438
21.6859859,17.9705122
21.698663,18.5196363
21.7240173,19.697764
21.7366945,20.3302533
21.7620487,21.6919034
21.7747259,22.4254986
21.8000802,24.0107967
21.8127573,24.868209
21.831773,26.2443371
21.8444502,27.2270685
21.8634659,28.8093379
21.8824816,30.5353477
21.9014973,32.4230027
21.920513,34.493075
21.9395287,36.7697708
21.9585444,39.2814311
21.9775601,42.0614056
21.9965758,45.1491479
22.0155915,48.5915982
22.0346073,52.4449449
22.0472844,55.2749921
22.0599615,58.3409296
22.0726387,61.6695465
22.0821465,64.3566796
22.0916544,67.2233222
22.1043315,71.353062
22.1170087,75.8747252
22.1296858,80.8390605
22.1423629,86.3052157
22.1487015,89.2476674
22.1582094,93.9502219
22.1708865,100.81753
22.1835636,108.460491
22.1899022,112.60938
22.1962408,116.99879
22.2025794,121.647405
22.2120872,129.151739
22.2184258,134.542587
22.2279336,143.275987
22.2342722,149.572694
22.2437801,159.813134
22.2501186,167.2259
22.2596265,179.332503
22.2659651,188.134463
22.2754729,202.576715
22.2818115,213.127134
22.2849808,218.706723
22.2913193,230.526562
22.2944886,236.789517
22.3008272,250.083686
22.3039965,257.142172
22.310335,272.15683
22.3135043,280.145925
22.3198429,297.178282
22.3230122,306.261487
22.3293508,325.67219
22.3356893,346.907133
22.3404433,364.163585
22.3451972,382.677051
22.3515358,409.522059
22.3562897,431.448329
22.3626282,463.359067
22.3673822,489.519272
22.3737207,527.735008
22.37689,548.41623
22.3800593,570.240237
22.3832286,593.283833
22.3863979,617.629318
22.3895672,643.364801
22.3927365,670.5845
22.3959057,699.389022
22.399075,729.885594
22.4022443,762.188242
22.4054136,796.417875
22.4085829,832.702262
22.4117522,871.175835
22.4149215,911.979291
22.4196754,977.874285
22.4228447,1025.15201
22.4275986,1101.47648
22.4323525,1184.75011
22.4371064,1275.4626
22.4418604,1374.03766
22.4450297,1444.27979
22.447882,1510.64399
22.4529529,1635.9639
22.4592914,1805.26294
22.4668977,2024.12185
22.4808426,2442.2696
22.4859134,2585.35454
22.4897166,2683.59772
22.492252,2743.14723
22.4947874,2796.91901
22.4973229,2844.07014
22.4998583,2883.81852
22.5023937,2915.47288
22.5049291,2938.46119
22.5074646,2952.35564
22.51,2956.89208
22.5125354,2951.98238
22.5150709,2937.71861
22.5176063,2914.36873
22.5201417,2882.36411
22.5226771,2842.27993
22.5252126,2794.81022
22.527748,2740.73924
22.5302834,2680.91162
22.5340866,2582.29311
22.5391574,2438.78795
22.5531023,2019.92469
22.5581731,1872.22655
22.563244,1731.54171
22.5683148,1599.33716
22.5733857,1476.35994
22.5781396,1369.64754
22.5828936,1271.12033
22.5876475,1180.4693
22.5924014,1097.26711
22.5955707,1045.69542
22.59874,997.062003
22.6019093,951.211305
22.6050786,907.988905
22.6082478,867.243527
22.6114171,828.82852
22.6145864,792.602876
22.6177557,758.431906
22.620925,726.187628
22.6240943,695.748954
22.6272635,667.001714
22.6304328,639.838564
22.6336021,614.158804
22.638356,578.215935
22.6415253,555.845436
22.6446946,534.654437
22.6494485,504.91857
22.6557871,468.747732
22.6589564,452.015998
22.665295,420.989647
22.6684643,406.597868
22.6748028,379.838538
22.6779721,367.392338
22.6843107,344.189711
22.68748,333.369434
22.6938185,313.146868
22.6969878,303.692539
22.7033264,285.980097
22.7064957,277.67938
22.7128342,262.092365
22.7191728,247.742871
22.7223421,240.992983
22.7286807,228.272674
22.7350192,216.507569
22.7381885,210.954438
22.7445271,200.455199
22.7508657,190.703006
22.7572042,181.630262
