energy [eV],cross section [b]
1e-05,12.575
1.06352128e-05,12.1936813
1.12833344e-05,11.8382947
1.19441172e-05,11.5061701
1.26173188e-05,11.1950033
1.33027504e-05,10.9027735
1.40001637e-05,10.6277445
1.54301426e-05,10.1233114
1.69061776e-05,9.67129793
1.84264962e-05,9.26373259
1.99898785e-05,8.89410462
2.15951383e-05,8.55715188
2.32432656e-05,8.24818874
2.49313142e-05,7.96405971
2.6658382e-05,7.7017627
2.84235876e-05,7.45877518
3.02262758e-05,7.23293534
3.20655431e-05,7.02243204
3.39406895e-05,6.82568841
3.58510286e-05,6.64134322
3.78035597e-05,6.46755804
3.97903057e-05,6.30402598
4.38641728e-05,6.00415043
4.8068455e-05,5.73556709
5.23991067e-05,5.49344043
5.68534465e-05,5.27385132
6.14273205e-05,5.07370741
6.6117758e-05,4.89043029
7.09218622e-05,4.72189143
7.54269099e-05,4.5787069
8.00235084e-05,4.44525982
8.47099034e-05,4.3205476
8.94843744e-05,4.20370499
9.43455827e-05,4.0939732
9.92917678e-05,3.99070026
0.000109433444,3.80128648
0.00011990176,3.63155617
0.000130684143,3.47851607
0.000141771941,3.33972138
0.000153156742,3.2131962
0.000164845568,3.09718105
0.000176817523,2.99049108
0.00018906621,2.89199899
0.000201585376,2.80075758
0.000214370377,2.7159551
0.000227414803,2.63691147
0.00024071369,2.56303456
0.000254262171,2.49381325
0.000268109885,2.42855721
0.000282200258,2.3671512
0.000311092882,2.25454843
0.000340910434,2.15369584
0.000371624222,2.06277768
0.00040321523,1.98032234
0.000435653996,1.90516863
0.000468919452,1.83634838
0.000502991054,1.77306232
0.000534941691,1.71929677
0.000567541623,1.66918761
0.00060077841,1.62235839
0.000634639847,1.57848418
0.000669116442,1.53728008
0.000704195707,1.49850126
0.000776122366,1.4273767
0.00085036561,1.36364326
0.000926836275,1.30617696
0.001005473,1.25405978
0.00108621613,1.20654979
0.00116911546,1.1629863
0.0012540228,1.12292439
0.00134089277,1.08594078
0.00142968103,1.05167978
0.00152035463,1.01983659
0.00161286813,0.990155839
0.00170718632,0.962415184
0.00180327466,0.936422699
0.00190148523,0.911919164
0.00200141678,0.888861308
0.00220632865,0.846579157
0.00241780028,0.808709178
0.00263562819,0.774569562
0.0028596775,0.743607719
0.00308973926,0.71538763
0.00332566407,0.689545741
0.00356730622,0.665781932
0.00379390609,0.645593058
0.00402511088,0.626777153
0.00426083236,0.609192856
0.00450098398,0.592718166
0.00474549841,0.577246094
0.00499428709,0.562684714
0.00550440435,0.535977561
0.00603095126,0.512045759
0.00657329546,0.490467259
0.00713100179,0.470897348
0.0077036471,0.453057424
0.00829158459,0.436699406
0.0088937632,0.421656227
0.0095098612,0.407768942
0.0101395641,0.394903996
0.0107826382,0.382946932
0.0114387611,0.371801859
0.0121076833,0.361385289
0.0127891597,0.351625155
0.0134856874,0.342424118
0.0141944205,0.333765932
0.0156476936,0.317889055
0.0171474898,0.303668942
0.0186923659,0.290849573
0.0202813653,0.279223453
0.0219130062,0.268626856
0.0235862289,0.25892327
0.0253,0.25
0.0271277889,0.241431019
0.0289975934,0.23351742
0.0309085096,0.22618366
0.032859653,0.219365724
0.0348503567,0.213008355
0.0368797147,0.207064893
0.0389470174,0.201494476
0.0410515685,0.196261614
0.0453715488,0.186684575
0.0498332823,0.178131402
0.0544325308,0.17043978
0.0591651825,0.163480938
0.0640352604,0.157141404
0.0690320968,0.151347302
0.0741526296,0.146028268
0.0793938707,0.141125899
0.0847536456,0.136590662
0.0902288901,0.132381529
0.0958172666,0.128463074
0.101516485,0.124804978
0.108850505,0.120527172
0.116353113,0.116576546
0.124020682,0.112915387
0.131849663,0.109511738
0.13983738,0.106338013
0.147980197,0.103370918
0.156275269,0.100590055
0.1647198,0.0979777059
0.182053761,0.0931966575
0.199956508,0.0889267431
0.218411035,0.0850869322
0.237400844,0.0816129395
0.256942077,0.0784481182
0.276991929,0.075555587
0.297538115,0.0729002192
0.318568643,0.0704528589
0.34007479,0.0681887786
0.362044259,0.0660874956
0.384467672,0.0641313246
0.407335838,0.0623051305
0.43676366,0.0601695645
0.466867944,0.0581973334
0.497634136,0.0563696097
0.529047995,0.0546704401
0.561098784,0.0530860534
0.593771916,0.0516048208
0.627055967,0.0502165584
0.660939724,0.0489124219
0.730492404,0.0465256273
0.802327344,0.044394001
0.876376305,0.0424770909
0.95257309,0.0407428046
1.03098247,0.0391628628
1.11143269,0.0377188536
1.19387445,0.0363932411
1.27825964,0.0351714701
1.36455325,0.0340411961
1.45270595,0.0329921938
1.5426801,0.0320156343
1.63443883,0.0311039619
1.75251824,0.0300378448
1.87331196,0.0290532677
1.99676159,0.0281408317
2.12280999,0.0272925724
2.25141408,0.026501615
2.38251532,0.0257621542
2.51606789,0.025069106
2.65202678,0.024418055
2.93110755,0.0232265196
3.21934592,0.0221623693
3.51646806,0.0212054097
3.82220836,0.0203396194
4.13682672,0.019550881
4.45963397,0.0188300028
4.7904323,0.0181682307
5.12902866,0.0175582983
5.47528258,0.016994043
5.82899611,0.0164703601
6.19001822,0.0159828422
6.55820097,0.0155277172
7.03199571,0.0149954903
7.51668163,0.0145039698
8.01202441,0.0140484636
8.51779479,0.0136249956
9.03381989,0.0132301339
9.55986485,0.0128609804
10.0957458,0.0125149969
10.6412821,0.0121899793
11.7610963,0.0115951411
12.9176554,0.0110638961
14.1098607,0.0105861628
15.3366465,0.010153943
16.5990556,0.00976018911
17.8943227,0.00940031238
19.2216541,0.00906994255
20.5802751,0.00876545214
21.9696222,0.00848376467
23.388901,0.00822233177
24.8375056,0.0079789531
26.3148423,0.00775174561
28.2159481,0.00748604736
30.1607548,0.00724067055
32.1483223,0.00701327277
34.1777307,0.00680186914
36.2482862,0.00660474632
38.3590464,0.00642045751
40.5092735,0.00624773567
42.6982431,0.00608548042
47.1915079,0.00578852535
51.8322121,0.00552331726
56.6159471,0.00528482327
61.5384366,0.00506905056
66.6038647,0.00487248076
71.8011359,0.00469282314
77.1270653,0.00452789594
82.5785449,0.00437588826
88.1533129,0.00423526427
93.8481823,0.00410475175
99.6607217,0.00398325228
105.588549,0.00386982578
113.216753,0.00373718392
121.020309,0.00361468693
128.995442,0.00350116542
137.138461,0.00339562852
145.446585,0.00329722089
153.91603,0.00320522024
162.543836,0.00311899406
171.327097,0.00303799301
189.356364,0.00288974712
207.977232,0.00275734996
227.172013,0.00263828901
246.923548,0.00253057098
267.248625,0.00243243943
288.102724,0.00234275076
309.473065,0.00226041582
331.347178,0.00218453056
353.715986,0.00211432826
376.566703,0.00204917382
399.889571,0.00198851886
423.675032,0.00193189409
454.283274,0.00186567663
485.595112,0.00180452369
517.595407,0.0017478515
550.26935,0.00169516538
583.605771,0.00164603833
617.589499,0.00160010977
652.208651,0.00155706395
687.451565,0.00151662661
759.794166,0.00144261931
834.510574,0.00137652401
911.529812,0.00131708641
990.783028,0.00126331143
1072.33759,0.0012143222
1156.01486,0.00116954783
1241.76355,0.00112844459
1329.53363,0.00109056116
1419.28868,0.00105551477
1510.97739,0.00102298838
1604.56061,0.000992708211
1699.99998,0.000964440005
1700.00002,0.167004594
1850.0,0.15782902
1962.5,0.151717187
2062.5,0.146729899
2187.5,0.141010993
2375.0,0.133358271
2562.5,0.126618524
2750.0,0.120623155
2937.5,0.115244922
3125.0,0.110367912
3250.0,0.107361673
3500.0,0.101868078
3625.0,0.0993497576
3875.0,0.094706483
4125.0,0.0905070141
4250.0,0.0885514972
4625.0,0.0832046531
5000.0,0.0785205543
5375.0,0.0746017187
5750.0,0.0711024155
6250.0,0.0668876459
6500.0,0.0649412999
7000.0,0.0614065953
7250.0,0.059792814
7750.0,0.0568381362
8250.0,0.0541932237
8500.0,0.0529714809
8750.0,0.0518122728
9250.0,0.0496637099
10000.0,0.0468092323
10312.5,0.0457150435
10937.5,0.0437022686
11562.5,0.0418949775
12500.0,0.0395075689
13437.5,0.0374414152
14375.0,0.0356374541
15312.5,0.0340316189
16250.0,0.0325748537
16875.0,0.0316930598
18125.0,0.0301106832
18750.0,0.0293978648
20000.0,0.0281038707
20625.0,0.0275144226
21875.0,0.0264334203
23750.0,0.0250158532
25625.0,0.023786545
27500.0,0.0226991889
28750.0,0.0220440416
30000.0,0.0214359821
32500.0,0.0203579903
35000.0,0.0194050608
37500.0,0.01855166
40000.0,0.0177793001
42500.0,0.0171037479
45000.0,0.0164816705
47500.0,0.0159055953
50000.0,0.0153696256
55000.0,0.0144425804
60000.0,0.0136214162
62500.0,0.0132599091
67500.0,0.0125912104
70000.0,0.0122812246
72500.0,0.0119967442
77500.0,0.0114653916
80000.0,0.0112168702
81250.0,0.0111146663
90000.0,0.0104510809
95000.0,0.0101082913
99999.999,0.00978859824
100000.001,0.00975000002
105947.534,0.00941836083
111985.723,0.00911079846
118112.29,0.00882470577
124325.038,0.00855784676
130622.185,0.00830827897
137001.573,0.00807433418
150000.0,0.00764763
162053.61,0.00735392721
174409.678,0.00708517557
187060.86,0.00683819789
200000.0,0.00661035
224463.477,0.00629587929
250000.0,0.00601577
274409.643,0.0058923958
300000.0,0.00577669
374713.265,0.00562522632
459360.0,0.00548999
479601.638,0.00532054966
500000.0,0.00516185
700000.0,0.00508624
800000.0,0.00518099
855255.0,0.0052523
900000.0,0.00527005
987220.0,0.00538256
1000000.0,0.00537652
1118696.9,0.00559625265
1250000.0,0.0058225
1369258.11,0.00610099892
1500000.0,0.00639305
1750000.0,0.00707292
1883780.0,0.00749129
1941960.68,0.00723995469
2000000.0,0.00700466
2085250.0,0.00697545
2165840.0,0.00705376
2316950.0,0.00733945
2344377.7,0.00701828923
2371218.7,0.00672099456
2397503.74,0.00644510921
2423261.17,0.00618849401
2473294.37,0.00572583816
2521504.91,0.00532061939
2568046.49,0.00496320069
2613063.45,0.00464587021
2656675.95,0.00436249709
2698990.44,0.00410811141
2740076.66,0.00387878053
2780043.12,0.00367100066
2818963.86,0.0034819894
2856905.8,0.00330941213
2893927.49,0.0031513057
2930084.93,0.00300598939
2965427.39,0.00287203389
3000000.0,0.00274821
3041007.2,0.00261320384
3081038.85,0.00248942945
3120151.93,0.00237559669
3158398.58,0.00227060095
3195825.07,0.0021734953
3232475.9,0.00208345545
3268390.75,0.00199976841
3303606.31,0.00192181162
3372060.61,0.00178099578
3438091.84,0.00165735063
3501906.85,0.00154803162
3563686.97,0.00145077571
3623545.93,0.00136382666
3681669.49,0.00128563359
3738180.23,0.00121498797
3793188.08,0.00115088872
3846788.35,0.00109250416
3899072.05,0.00103912969
3950118.48,0.00099017236
4000000.0,0.000945127
4076000.8,0.000882118126
4149563.26,0.000826136973
4220877.66,0.000776113803
4290112.71,0.000731180601
4357412.51,0.000690630014
4422914.09,0.00065387259
4486735.3,0.000620420452
4548982.72,0.000589863978
4609731.13,0.000561866776
4669089.2,0.000536124047
4727135.48,0.000512384803
4783941.99,0.000490433075
4839572.89,0.000470082846
4894090.01,0.000451171512
5075012.5,0.000392626693
5147826.38,0.000370544066
5218594.92,0.000350545618
5287455.89,0.000332361222
5354529.16,0.000315765437
5419928.98,0.000300566495
5483755.32,0.000286602393
5546099.43,0.000273734617
5607028.5,0.000261847216
5666634.53,0.000250834102
5724986.65,0.000240606276
5782148.71,0.000231086113
5893130.43,0.0002139057
6000000.0,0.000198841
6064218.74,0.000190724433
6127142.55,0.000183170974
6249355.1,0.000169543137
6367090.03,0.000157597469
6480740.0,0.000147052
6617079.86,0.000136608717
6748824.38,0.000127404383
6876353.07,0.000119238869
7000000.0,0.000111952
7243861.99,0.000105183985
7483310.0,9.91358e-05
8000000.0,9.40842e-05
8218092.77,0.000103549184
8455345.58,0.000114603403
8582068.63,0.000120843266
8714753.09,0.000127634777
8853883.33,0.000135046701
9000000.0,0.000143159
9056205.72,0.000151409007
9114837.55,0.000160462917
9176096.92,0.000170433622
9240210.0,0.000181455
9298428.02,0.000190406912
9358831.43,0.000200098387
9421575.11,0.000210616779
9486830.0,0.000222063
9609169.32,0.000241903218
9740040.0,0.000264776
9866074.36,0.000285706889
10000000.0,0.000309437
10056763.6,0.000325661472
10115753.5,0.000343319615
10177137.0,0.000362593342
10241100.0,0.000383695
10360371.6,0.00041911051
10488100.0,0.000460154
10605418.2,0.000493228547
10729354.6,0.000530314718
10860611.2,0.00057211682
11000000.0,0.000619504
11234611.4,0.000682791087
11359191.7,0.000718393431
11489100.0,0.00075705
11735280.8,0.000824168931
12000000.0,0.000901223
13000000.0,0.00100363
14000000.0,0.00100093
15000000.0,0.000979507
16000000.0,0.000968851
17000000.0,0.000974082
18000000.0,0.000993915
19000000.0,0.00102623
20000000.0,0.00106915
