energy [eV],cross section [b]
1e-05,29236.8374
1.06415525e-05,28341.7192
1.16038814e-05,27140.9154
1.25662102e-05,26080.8304
1.33723986e-05,25282.3115
1.4178587e-05,24552.9013
1.53878696e-05,23568.2229
1.62975005e-05,22900.9327
1.73105738e-05,22220.573
1.83236471e-05,21597.4432
1.93367204e-05,21023.9447
2.11163063e-05,20118.3298
2.23893555e-05,19537.8482
2.36624047e-05,19004.8618
2.57353241e-05,18223.1666
2.81349347e-05,17428.4738
3.05345452e-05,16729.395
3.33446828e-05,16008.6693
3.53549502e-05,15546.6956
3.83703513e-05,14923.0416
4.06385572e-05,14500.4039
4.31647014e-05,14069.4847
4.56908457e-05,13674.8096
4.821699e-05,13311.5664
5.10672651e-05,12934.5219
5.42416711e-05,12550.0878
5.7416077e-05,12197.9866
6.0590483e-05,11873.9255
6.41721986e-05,11537.5504
7.01557365e-05,11034.1703
7.61392745e-05,10591.345
8.31464801e-05,10134.7971
8.81591731e-05,9842.15079
9.56782126e-05,9447.07599
0.000104483614,9039.75416
0.00011078267,8778.65925
0.000117081725,8538.91996
0.000123380781,8317.77443
0.000131296306,8062.76088
0.000139211831,7829.8078
0.000147127357,7615.90649
0.000155042882,7418.59309
0.000169963106,7084.85295
0.000179909921,6885.80024
0.000189856737,6702.59195
0.000207329522,6413.26548
0.000226078588,6140.88172
0.000244827654,5900.39224
0.000268388125,5634.65718
0.000284095106,5476.15794
0.000307655576,5261.54758
0.000327393298,5099.87023
0.000356999881,4882.94895
0.000376737603,4752.74905
0.000399007882,4617.58756
0.000423810718,4479.76035
0.000448613554,4353.50897
0.00047341639,4237.29695
0.000501401691,4116.65262
0.000548153338,3936.07591
0.000594904986,3777.18388
0.000649654937,3613.32558
0.00070840404,3459.0281
0.000767153144,3322.76626
0.000816370049,3220.09387
0.000865586954,3126.28096
0.000939412312,2999.59265
0.000994944263,2913.70764
0.00105679126,2826.11138
0.00111863826,2745.85543
0.00118048526,2671.96599
0.00125026787,2595.24159
0.00132798611,2516.98211
0.00140570435,2445.27441
0.00148342258,2379.24954
0.00161994407,2274.9279
0.00176643763,2176.64826
0.00191293118,2089.81564
0.00209701806,1993.79282
0.00228110494,1909.55731
0.00248093868,1828.86514
0.00263515697,1772.91993
0.00278937527,1721.63899
0.00302070271,1652.1419
0.00321449666,1599.73461
0.00340829061,1551.81533
0.00360208457,1507.7736
0.00379587852,1467.10938
0.00416116685,1398.23872
0.0044046924,1357.1032
0.00464821795,1319.19954
0.00507600006,1259.25107
0.00553502905,1202.70212
0.00599405804,1152.67536
0.00657088352,1097.27695
0.00695543384,1064.16864
0.00753225932,1019.2543
0.00801549333,985.348313
0.00849872734,954.31708
0.00898196136,925.771487
0.00946519537,899.392679
0.0100724374,868.91458
0.0106796794,841.014281
0.0112869214,815.343645
0.0118941634,791.61734
0.0130387731,751.379243
0.0141833827,715.996148
0.0154259026,682.025544
0.0168642431,647.374104
0.0183025836,616.791926
0.0199869964,585.163323
0.0211919624,564.836926
0.0223969283,546.137823
0.0236018943,528.860069
0.0248754736,511.954777
0.026325,494.201333
0.02735,482.495474
0.0294,460.924437
0.0306100151,449.211587
0.0325127724,432.124221
0.0353669085,409.120973
0.0384651883,387.11867
0.0420517557,364.786324
0.045638323,345.197076
0.0483361641,331.967287
0.0513408014,318.529586
0.0543454387,306.279798
0.0573500759,295.065889
0.0608911973,283.009641
0.0643081445,272.415804
0.0670644335,264.52667
0.071198867,253.662453
0.073955156,246.997405
0.0763274619,241.594513
0.0810720738,231.622842
0.0881889916,218.474623
0.0946968017,208.048911
0.10154058,198.457839
0.10916145,189.171896
0.116782319,181.126356
0.12338616,175.011958
0.12999,169.589518
0.138370559,163.578068
0.146755,158.412333
0.1551375,153.986446
0.16352,150.210035
0.1719025,147.010268
0.180285,144.327274
0.190730269,141.633258
0.19705,140.32263
0.2054325,138.926465
0.213815,137.895427
0.22638875,136.985077
0.239539579,136.794784
0.25153625,137.261977
0.25991875,137.938627
0.26830125,138.89832
0.280875,140.865547
0.291202014,142.957752
0.3060225,146.729052
0.31859625,150.66805
0.33117,155.326542
0.34374375,160.756244
0.3563175,167.022942
0.369506536,174.585191
0.381465,182.412463
0.39403875,191.756886
0.4066125,202.38869
0.41918625,214.485624
0.43176,228.262579
0.44433375,243.979796
0.448525,249.702808
0.4569075,261.953236
0.462563023,270.872654
0.46948125,282.567696
0.4736725,290.104507
0.482055,306.293342
0.48624625,314.989348
0.49462875,333.706464
0.49882,343.781646
0.5072025,365.515296
0.51139375,377.240337
0.51977625,402.591587
0.526063125,423.431271
0.534445625,453.948946
0.5407325,479.113038
0.54492375,497.080243
0.549115,516.073248
0.55330625,536.158939
0.5574975,557.408201
0.56168875,579.895913
0.56588,603.700862
0.57007125,628.905547
0.5742625,655.595836
0.58144366,705.035766
0.588931875,762.00731
0.593123125,796.499685
0.597314375,832.972062
0.601505625,871.505062
0.6077925,933.319399
0.614079375,1000.09968
0.6212045,1081.85344
0.626234,1143.35595
0.63294,1229.88534
0.6413225,1344.09576
0.659764,1603.25588
0.66647,1691.52656
0.6714995,1751.94046
0.676529,1805.34501
0.679882,1836.13694
0.683235,1862.46773
0.686588,1883.86056
0.689941,1899.90203
0.693294,1910.25988
0.696647,1914.69808
0.7010059,1911.42083
0.703353,1905.41642
0.706706,1891.78413
0.710059,1872.40456
0.713412,1847.59313
0.7184415,1801.09521
0.7217945,1764.62351
0.7251475,1724.40619
0.730177,1658.30852
0.7352065,1587.00257
0.757001,1258.80625
0.763707,1162.02033
0.770413,1070.40454
0.773766,1026.81319
0.780472,944.357241
0.783825,905.53994
0.78801625,859.278189
0.794303125,794.509466
0.798494375,754.316191
0.802685625,716.41213
0.806876875,680.699589
0.811068125,647.0744
0.815259375,615.429123
0.819450625,585.655515
0.823641875,557.646409
0.827833125,531.297097
0.832024375,506.506321
0.836215625,483.176953
0.840406875,461.216428
0.84669375,430.651605
0.850885,411.740009
0.85507625,393.911564
0.861363125,369.046258
0.86765,346.240176
0.873936875,325.295253
0.88022375,306.033367
0.886510625,288.294582
0.8927975,271.93543
0.89698875,261.731701
0.90537125,242.854763
0.9095625,234.119145
0.915204744,223.034449
0.92213625,210.393341
0.93051875,196.405024
0.93890125,183.6864
0.9430925,177.758251
0.951475,166.684587
0.9598575,156.560087
0.96404875,151.821781
0.97243125,142.936089
0.98081375,134.770511
0.98919625,127.252308
0.99757875,120.317371
1.00596125,113.909065
1.01434375,107.977244
1.02272625,102.477409
1.03110875,97.369983
1.03949125,92.6196943
1.04787375,88.1950397
1.05625625,84.0678245
1.06883,78.3801021
1.0772125,74.8913983
1.085595,71.6222221
1.09816875,67.0921929
1.10655125,64.2987671
1.11493375,61.6704593
1.1275075,58.0107388
1.14125603,54.3587309
1.152655,51.5784453
1.16522875,48.7450516
1.1778025,46.1325328
1.1945675,42.9554027
1.20295,41.4853794
1.219715,38.7577155
1.2280975,37.4913189
1.2448625,35.133926
1.253245,34.0359927
1.26581875,32.4812496
1.2783925,31.0286965
1.286775,30.1128383
1.30354,28.3968027
1.3119225,27.5924492
1.3286875,26.0816465
1.3454525,24.6902086
1.3622175,23.4061756
1.3789825,22.2190306
1.387365,21.6588486
1.40413,20.5999838
1.420895,19.6167796
1.43766,18.7023756
1.45602969,17.7722227
1.47119,17.0561885
1.487955,16.3140734
1.50472,15.6199423
1.521485,14.969863
1.53825,14.360294
1.5633975,13.514991
1.5801625,12.9933763
1.5969275,12.5023525
1.622075,11.8182782
1.6472225,11.1911833
1.67237,10.6151426
1.7059,9.91764955
1.722665,9.59614853
1.756195,9.00184252
1.7813425,8.59473633
1.80017587,8.30947843
1.82532337,7.95263568
1.856785,7.54154692
1.87355,7.33719474
1.9154625,6.86662881
1.93641875,6.65109243
1.97833125,6.25523369
2.02024375,5.90143204
2.0412,5.73868892
2.0831125,5.43873416
2.125025,5.16960882
2.1669375,4.92796685
2.20885,4.71095978
2.24206081,4.55488327
2.28263581,4.38159896
2.326762,4.21307001
2.3699075,4.06667527
2.413053,3.93703743
2.4561985,3.82298397
2.499344,3.72355923
2.5424895,3.63800714
2.585635,3.56575974
2.6287805,3.50643134
2.671926,3.45981827
2.7150715,3.42590468
2.758217,3.40487529
2.8013625,3.39713618
2.844508,3.40334579
2.8876535,3.42445885
2.930799,3.46178757
2.9739445,3.51708612
2.99551725,3.55217097
3.03866275,3.63897829
3.08180825,3.75095791
3.11416737,3.85416144
3.1465265,3.97652164
3.16809925,4.07021433
3.189672,4.17484456
3.22203112,4.35511713
3.25439025,4.56810127
3.2845921,4.80225081
3.30616485,4.99426
3.3191085,5.12081343
3.3449958,5.4031309
3.362254,5.61598501
3.3795122,5.85161635
3.3967704,6.11317752
3.4053995,6.25482279
3.4140286,6.40440347
3.4312868,6.72974514
3.448545,7.09454013
3.4658032,7.50523288
3.4830614,7.96966108
3.49600505,8.35894583
3.5089487,8.78867733
3.5175778,9.10042351
3.5262069,9.43462017
3.53915055,9.9828699
3.54777965,10.3833763
3.55640875,10.815285
3.56503785,11.2819451
3.57366695,11.7871645
3.58229605,12.3352872
3.58974189,12.8465256
3.5952397,13.2489902
3.6038688,13.9277787
3.6124979,14.6704129
3.621127,15.4851108
3.6297561,16.3814481
3.6383852,17.3706328
3.6470143,18.465847
3.6556434,19.6826731
3.6642725,21.0396304
3.66858705,21.7774119
3.6729016,22.5588533
3.67721615,23.3874281
3.6815307,24.2669566
3.68584525,25.2016479
3.69231708,26.7174078
3.69663162,27.8114158
3.70094617,28.9791254
3.70526072,30.2271876
3.71173255,32.2663607
3.7160471,33.7495742
3.72251893,36.1844488
3.72683347,37.964149
3.7333053,40.9009559
3.73761985,43.0590571
3.73977712,44.2045797
3.74409167,46.6406427
3.74840623,49.2880463
3.7505635,50.6984253
3.75487805,53.7091711
3.75703532,55.3168797
3.76134987,58.7572601
3.76350715,60.5989089
3.7678217,64.5499912
3.76997897,66.6704488
3.77429353,71.2317935
3.7764508,73.6862675
3.78076535,78.9805798
3.78292262,81.8372037
3.78723718,88.0160629
3.79047309,93.0988361
3.79263036,96.7225979
3.79478764,100.549346
3.79802355,106.700274
3.80018082,111.096486
3.8023381,115.747881
3.80449538,120.671685
3.80665265,125.886208
3.80880992,131.410865
3.8109672,137.266163
3.81312447,143.473672
3.81528175,150.05596
3.81743902,157.03648
3.8195963,164.439403
3.82175357,172.289379
3.82391085,180.611201
3.82606812,189.429367
3.8282254,198.767489
3.83038268,208.647549
3.83361859,224.525218
3.8368545,241.713077
3.84030614,261.509387
3.84375778,282.777513
3.84634651,299.624262
3.85066106,329.119028
3.86015307,396.272387
3.86360471,419.216916
3.86619344,434.953983
3.86791926,444.483122
3.86964508,453.078413
3.8713709,460.604513
3.87309672,466.935963
3.87482254,471.962002
3.87654836,475.591139
3.87827418,477.755155
3.88,478.412213
3.88258873,476.550705
3.88431455,473.44468
3.88604037,468.909483
3.88776619,463.02719
3.88949201,455.901041
3.89121783,447.651073
3.89294365,438.40937
3.89553238,422.992856
3.89898402,400.277124
3.91106476,314.733906
3.9145164,291.466045
3.91624222,280.296447
3.91969386,259.011417
3.92141968,248.925119
3.92530278,227.625579
3.92746005,216.624605
3.92961732,206.205435
3.93285324,191.630671
3.93501051,182.586591
3.93716779,174.053372
3.9404037,162.15741
3.94363961,151.270697
3.94687552,141.309432
3.95011144,132.193029
3.95334735,123.845509
3.95658326,116.196239
3.95874054,111.452312
3.96197645,104.825138
3.96413372,100.708764
3.96736964,94.9488005
3.96952691,91.3648459
3.97276282,86.3408876
3.9749201,83.2090957
3.97923465,77.4195333
3.98139192,74.7424078
3.98570647,69.7799551
3.99002102,65.2886489
3.99433558,61.2141057
3.99865013,57.5090606
4.00296467,54.1323751
4.00727922,51.0481803
4.01159377,48.225141
4.01590832,45.6358258
4.02022287,43.2561689
4.02453743,41.0650101
4.02885198,39.0437026
4.0353238,36.2947099
4.03963835,34.6300452
4.0439529,33.0853337
4.05042473,30.969765
4.05473928,29.6799847
4.05905382,28.476995
4.06552565,26.8193956
4.07199747,25.3190253
4.0784693,23.9573209
4.08494113,22.7183458
4.09141295,21.5883644
4.10004205,20.2309591
4.1043566,19.6094138
4.1129857,18.467611
4.11730025,17.9427992
4.12592935,16.9753578
4.1302439,16.5292112
4.138873,15.7043016
4.14318755,15.3227914
4.15181665,14.6155626
4.1561312,14.2876754
4.1647603,13.6785189
4.16907485,13.3955213
4.1820185,12.6237187
4.19496215,11.9540734
4.20359125,11.5569925
4.2165349,11.0261795
4.22947855,10.5639052
4.2424222,10.1614533
4.25536585,9.81159802
4.2683095,9.5083242
4.2769386,9.32950427
4.2941968,9.02224657
4.3028259,8.89165979
4.3200841,8.67206544
4.3287132,8.58155267
4.3459714,8.43595951
4.3546005,8.37984269
4.3718587,8.29884823
4.3891169,8.2573202
4.4063751,8.25330992
4.4236333,8.28555855
4.43657695,8.33313691
4.45383515,8.42766904
4.4708894,8.55636283
4.48519305,8.69198894
4.50375835,8.90715385
4.52324312,9.18314851
4.54088895,9.48070377
4.55945425,9.84693173
4.57801955,10.2731506
4.59658485,10.7662405
4.61050883,11.1849657
4.62907413,11.8165869
4.63835678,12.167173
4.64763943,12.543227
4.6615634,13.1593773
4.67084605,13.6080936
4.6801287,14.0900848
4.68941135,14.6081677
4.698694,15.1654821
4.70797665,15.7655328
4.7172593,16.4122386
4.72654195,17.1099889
4.7358246,17.8637092
4.74510725,18.6789369
4.7543899,19.5619101
4.76367255,20.5196701
4.7729552,21.5601816
4.78223785,22.6924731
4.7915205,23.9268005
4.80080315,25.274839
4.8100858,26.7499072
4.81936845,28.36723
4.82400978,29.2345902
4.83329242,31.0987773
4.84257508,33.1537569
4.8472164,34.2603603
4.85649905,36.6489035
4.86114037,37.9384481
4.87042303,40.7292288
4.87506435,42.2398629
4.88202634,44.6644236
4.88666766,46.394837
4.89362965,49.1770185
4.90059164,52.2034741
4.90755363,55.4993041
4.91451561,59.092059
4.9214776,63.011792
4.92843959,67.2910078
4.93540158,71.9644547
4.94236356,77.0686811
4.94700489,80.729364
4.95164621,84.6093447
4.95628754,88.7194959
4.96092886,93.0701199
4.96557019,97.6705648
4.97021151,102.528741
4.97485284,107.650527
4.97903003,112.48817
4.98459962,119.273753
4.99016921,126.433834
4.9957388,133.947153
5.00316492,144.448139
5.02915634,182.879333
5.03658246,193.01442
5.04215205,199.861868
5.04586511,203.94844
5.04957817,207.578954
5.05329123,210.694171
5.05700429,213.240463
5.06071735,215.171963
5.06443041,216.452518
5.06814347,217.057315
5.07148522,217.013405
5.07742612,215.564219
5.08113918,213.7925
5.08485224,211.390973
5.09042183,206.70314
5.09413489,202.931228
5.09784795,198.711257
5.10341754,191.679973
5.11084366,181.331783
5.13312202,147.893355
5.1442612,131.860634
5.15168732,121.872991
5.15540038,117.123546
5.1628265,108.139359
5.16746783,102.877345
5.17210915,97.8850951
5.17907114,90.8904252
5.18371246,86.5448151
5.18835379,82.4419461
5.19531578,76.7191958
5.20227776,71.4803572
5.20923975,66.6868303
5.21620174,62.3008625
5.22084306,59.5854321
5.22780505,55.7997991
5.23244638,53.4538438
5.2370877,51.2396962
5.24172902,49.1489891
5.24869101,46.2273131
5.25333234,44.4118724
5.25797366,42.6944533
5.26261499,41.068822
5.26957697,38.789859
5.2742183,37.3690973
5.28350095,34.7423049
5.2927836,32.373053
5.30206625,30.2308419
5.3113489,28.2892085
5.32063155,26.5251721
5.3299142,24.9187493
5.33919685,23.4525352
5.3484795,22.1113418
5.35312082,21.4834109
5.36240348,20.3053714
5.37168613,19.2221623
5.38096878,18.2241992
5.3856101,17.7545055
5.39953408,16.4512171
5.41345805,15.2892712
5.42738202,14.2494317
5.441306,13.3155498
5.45522997,12.4740031
5.46915395,11.7132467
5.48307792,11.0234528
5.49236058,10.5988134
5.50628455,10.009214
5.52020853,9.47071599
5.5341325,8.97767626
5.54341515,8.67179344
5.56198045,8.10902773
5.5712631,7.84989072
5.5898284,7.37116973
5.6083937,6.93952101
5.61767635,6.73947582
5.63624165,6.36769956
5.65480695,6.02991254
5.67807397,5.64858664
5.7012202,5.30960485
5.7197855,5.06313933
5.74763345,4.73038923
5.76619875,4.53028218
5.78476405,4.34555586
5.80332935,4.1747296
5.8311773,3.94174028
5.8497426,3.80028084
5.8683079,3.66877328
5.8868732,3.54636036
5.9054385,3.43227748
5.9240038,3.32584108
5.9425691,3.22643874
5.9611344,3.13352063
5.998265,2.96520778
6.0353956,2.8175005
6.0725262,2.68761937
6.1096568,2.57328128
6.1467874,2.47260288
6.183918,2.38402621
6.2210486,2.30626104
6.2396139,2.27109155
6.2767445,2.2076025
6.31265475,2.15428102
6.36084625,2.09419112
6.41191975,2.04376797
6.4374565,2.02338845
6.48853,1.99192161
6.51406675,1.98075707
6.56514025,1.96755475
6.590677,1.96558956
6.6417505,1.9713271
6.66728725,1.97928603
6.71836075,2.00632018
6.75666587,2.03737122
6.78220263,2.06386141
6.8154004,2.10610258
6.8460445,2.15395982
6.8766886,2.21165141
6.9073327,2.28082233
6.9379768,2.36357936
6.9584062,2.42761196
6.9890503,2.53946591
7.0094797,2.62641664
7.0299091,2.72510367
7.0401238,2.77944515
7.0605532,2.89955399
7.0809826,3.03719858
7.0911973,3.11361577
7.10651935,3.23911416
7.11673405,3.33086853
7.1294306,3.45509513
7.1422708,3.5936291
7.1524855,3.71428903
7.16780755,3.91514643
7.17802225,4.06412515
7.18823695,4.22687856
7.19845165,4.40513858
7.20866635,4.60091894
7.21888105,4.81657141
7.22909575,5.05485546
7.2342031,5.18347905
7.2444178,5.46199488
7.2546325,5.77244901
7.2648472,6.11987098
7.26995455,6.30928868
7.27761558,6.6154651
7.28272292,6.83571311
7.29038395,7.19305803
7.2954913,7.45110848
7.30059865,7.72666782
7.305706,8.02133058
7.31336702,8.5030845
7.31847437,8.85373497
7.3261354,9.42980593
7.33124275,9.85120562
7.33890378,10.5471966
7.34401112,11.0591161
7.3465648,11.3310029
7.35167215,11.9095553
7.3567795,12.5388409
7.35933317,12.8743107
7.36444052,13.5909459
7.3669942,13.9738967
7.37210155,14.7940035
7.37465522,15.2333461
7.37976257,16.1766717
7.38231625,16.6833439
7.3874236,17.7741752
7.38997727,18.3616525
7.39508462,19.6299555
7.3976383,20.314883
7.40274565,21.7976961
7.40657616,23.018714
7.40912984,23.8898643
7.41168351,24.8103333
7.41551403,26.2908704
7.4180677,27.3497362
7.42062137,28.4706189
7.42445189,30.2774225
7.42700556,31.5721558
7.42955924,32.9446088
7.43338975,35.1600869
7.43594342,36.749334
7.4384971,38.4348015
7.44105077,40.2221152
7.44360445,42.1169367
7.44615813,44.1248621
7.4487118,46.2512898
7.45126547,48.5012499
7.45509599,52.1173137
7.4589265,56.032187
7.46301238,60.5417683
7.46709826,65.3873838
7.47118414,70.5411448
7.47527002,75.9487298
7.48650619,91.2637433
7.49059207,96.5011032
7.49365648,100.095654
7.49569942,102.273648
7.49774236,104.239563
7.4997853,105.962548
7.50182824,107.413988
7.50387118,108.568604
7.50591412,109.405494
7.50795706,109.909046
7.50989785,110.069837
7.51204294,109.884136
7.51408588,109.355957
7.51612882,108.494995
7.51817176,107.317119
7.5202147,105.843464
7.52225764,104.099509
7.52430058,102.114036
7.52634352,99.9180276
7.52940793,96.2995467
7.53349381,91.0362714
7.54472998,75.6837549
7.54881586,70.2730954
7.55290174,65.1207033
7.55698762,60.2801424
7.5610735,55.7786067
7.56490401,51.8734478
7.56873452,48.2687576
7.5712882,46.027119
7.57384187,43.9094944
7.57639555,41.9107724
7.57894922,40.0254839
7.5815029,38.247971
7.58405657,36.5725188
7.58661025,34.9934552
7.58916392,33.5052256
7.5917176,32.1024462
7.59427127,30.7799415
7.59682495,29.5327687
7.59937862,28.3562321
7.6019323,27.2458893
7.60448597,26.1975524
7.60703965,25.2072842
7.61087016,23.8227467
7.61470067,22.5491276
7.61980802,21.0057307
7.62491538,19.6194049
7.62746905,18.9791243
7.6325764,17.793696
7.63768375,16.7225881
7.6427911,15.7525156
7.64534477,15.3017001
7.65045212,14.4620212
7.6530058,14.0708192
7.65811315,13.3404133
7.66066682,12.9993038
7.66577417,12.3609622
7.66832785,12.0621704
7.6734352,11.5018088
7.67598887,11.2389561
7.6836499,10.5128192
7.68875725,10.0756783
7.69641827,9.48155887
7.7040793,8.95236534
7.71174032,8.47949104
7.71684768,8.19190208
7.7245087,7.79734386
7.73216973,7.44215527
7.73983075,7.1216476
7.7449381,6.92523689
7.7551528,6.56918676
7.76281383,6.33080985
7.77047485,6.11410133
7.78068955,5.85503783
7.7857969,5.73702643
7.7960116,5.52157239
7.8062263,5.33071254
7.82154835,5.08425095
7.8368704,4.87855533
7.85219245,4.70726994
7.86240715,4.60966449
7.8777292,4.48505038
7.89305125,4.38357099
7.9083733,4.30244702
7.918588,4.25855104
7.9390174,4.19277518
7.9594468,4.15352818
7.9798762,4.13823717
7.9900909,4.13898569
8.0105203,4.15645275
8.0309497,4.1945402
8.0513791,4.25289182
8.0615938,4.28968793
8.08,4.36905259
8.0957626,4.45076438
8.112307,4.55080987
8.1288514,4.66633718
8.1453958,4.79845884
8.1619402,4.94856368
8.1784846,5.11835684
8.1867568,5.2112684
8.2033012,5.41461469
8.2198456,5.64367473
8.23639,5.90177733
8.2529344,6.19294696
8.2694788,6.52206264
8.2860232,6.89506293
8.2984315,7.20792327
8.3108398,7.55318366
