energy [eV],cross section [b]
1e-05,1252.60513
1.0968218e-05,1196.04139
1.19364359e-05,1146.50769
1.29879824e-05,1099.11599
1.4206186e-05,1050.93463
1.54243896e-05,1008.58042
1.63413686e-05,979.874312
1.73631908e-05,950.604533
1.88959241e-05,911.2356
2.05605703e-05,873.569119
2.18462183e-05,847.47481
2.31318663e-05,823.587369
2.44175143e-05,801.612295
2.5869134e-05,778.79695
2.74867253e-05,755.533609
2.99131123e-05,724.24356
3.25483234e-05,694.306607
3.56011828e-05,663.870833
3.86540422e-05,637.116037
4.2232383e-05,609.527672
4.47931041e-05,591.848843
4.86341857e-05,567.996685
5.31364236e-05,543.401396
5.63583009e-05,527.640554
6.1191117e-05,506.376133
6.4828925e-05,491.963903
6.88826635e-05,477.268684
7.29364021e-05,463.816285
7.69901407e-05,451.440856
8.15671996e-05,438.592227
8.92177685e-05,419.366284
9.68683374e-05,402.465586
0.000105835781,385.038344
0.000115461661,368.639567
0.000125087541,354.172167
0.000133161675,343.267227
0.000145272876,328.6476
0.000157384076,315.749814
0.000167542882,306.027989
0.000177701688,297.152238
0.000187860494,289.006555
0.0001980193,281.49605
0.000210801023,272.828991
0.000223582746,264.916213
0.000236364469,257.654299
0.00025718712,247.004689
0.000281309902,236.177663
0.000297391756,229.703644
0.000313473611,223.734455
0.000343824689,213.63222
0.000374175767,204.78558
0.000407138975,196.321537
0.000432597287,190.457903
0.000458055599,185.090192
0.000496243066,177.826996
0.000528274496,172.352314
0.000560305926,167.354101
0.000592337357,162.767027
0.000624368787,158.537653
0.000684821295,151.379899
0.000725122966,147.113848
0.000765424638,143.189349
0.000836282694,136.990313
0.000912343522,131.157167
0.000988404351,126.011072
0.00105220374,122.13219
0.00114790283,116.932047
0.00124360191,112.344412
0.00132387376,108.886479
0.00140414561,105.729517
0.00152455338,101.470223
0.00161518798,98.5834761
0.00171618533,95.6400861
0.00181718269,92.9456659
0.00191818004,90.4669903
0.00203221572,87.893576
0.00215928973,85.2696765
0.00234990074,81.7405153
0.00255691646,78.3640647
0.0027967416,74.9314648
0.00303656675,71.9141164
0.00331767243,68.8028766
0.0035188364,66.8092409
0.00382058235,64.1195379
0.00417426711,61.3461662
0.0044273699,59.5690477
0.00468047268,57.9381629
0.00493357547,56.4345035
0.00525202723,54.6993627
0.00557047899,53.1152999
0.00588893075,51.6615988
0.00620738251,50.3213138
0.00680839244,48.0531637
0.00740940237,46.0670861
0.0080621375,44.167068
0.00881832306,42.23559
0.00957450862,40.537898
0.0104608546,38.7875235
0.0110951388,37.6659967
0.012046565,36.1530155
0.0127627325,35.1276997
0.0135607834,34.0823679
0.0147578597,32.6765641
0.0155559106,31.8310513
0.0165600114,30.8554652
0.0175641122,29.9649143
0.018568213,29.1477361
0.0202039893,27.949574
0.0220990159,26.7317676
0.0239940425,25.6615492
0.0260104835,24.6540677
0.0281419341,23.7094467
0.0302733846,22.8667034
0.0329838106,21.915745
0.0349837531,21.2863345
0.0379836669,20.4374587
0.0414999488,19.5625696
0.0440162594,19.002195
0.04653257,18.4881121
0.0490488806,18.0142995
0.0537978813,17.2128647
0.0569638818,16.7354996
0.0601298823,16.2965686
0.0656963174,15.6037107
0.0716714695,14.9523355
0.0776466217,14.3782233
0.0851645071,13.7442641
0.0901764308,13.3668054
0.0976943162,12.8565727
0.104000276,12.4724187
0.113459215,11.9580747
0.122918154,11.5050287
0.130852258,11.1640469
0.138786363,10.8531639
0.146720467,10.5682447
0.154654572,10.3059076
0.164637194,10.003651
0.179611127,9.59933351
0.18959375,9.35738292
0.200865086,9.10667373
0.219705161,8.73257925
0.238545236,8.40491797
0.260252341,8.07375894
0.283392961,7.76492098
0.30653358,7.49306525
0.327920187,7.26892659
0.347803321,7.08023342
0.377628022,6.82707184
0.400077983,6.65654011
0.425094773,6.48365342
0.450111562,6.32637271
0.475128351,6.18261272
0.503374701,6.03440878
0.550588567,5.81493768
0.613540388,5.56674626
0.682487994,5.34016675
0.742130182,5.1739852
0.796865179,5.04110881
0.871606888,4.88450325
0.971262501,4.7115397
1.05460871,4.59200644
1.1104172,4.52253547
1.22203418,4.40487432
1.28348386,4.35053256
1.3930884,4.2691758
1.48939811,4.21200351
1.57104325,4.17268833
1.66943353,4.1352562
1.79923352,4.10075715
1.89933477,4.08460922
2.07643414,4.07625204
2.25353351,4.09176603
2.43401669,4.13082092
2.64293349,4.20490394
2.81600015,4.2903244
2.98249624,4.39429166
3.16213347,4.53250848
3.33520013,4.69413845
3.50826679,4.88762179
3.59480012,4.99786239
3.68133345,5.11812347
3.76786678,5.24931731
3.85440011,5.39249653
3.94093344,5.54887839
4.02746677,5.7198748
4.1140001,5.90712926
4.20053343,6.11256275
4.28706676,6.33843123
4.37360009,6.58739794
4.46013342,6.86262529
4.54666675,7.16789251
4.63320008,7.5077478
4.67646674,7.69232524
4.76300007,8.09477678
4.80626674,8.31451602
4.89280007,8.79650134
4.95770007,9.20035085
5.00096673,9.4926371
5.06586673,9.97023617
5.13076673,10.5013724
5.17403339,10.8894679
5.23893339,11.5302936
5.28220005,12.0019516
5.34710005,12.7870214
5.39036672,13.3697955
5.41200005,13.6813006
5.45526671,14.3490379
5.47690005,14.7073013
5.52016671,15.4783862
5.54180004,15.893834
5.58506671,16.7920527
5.62833338,17.791807
5.64996671,18.3348502
5.69323337,19.5193495
5.71486671,20.1664268
5.7473167,21.2147053
5.76895004,21.9708145
5.80140004,23.2016631
5.82303337,24.0939468
5.85548337,25.5543747
5.8771167,26.6191132
5.9095667,28.3725227
5.93120003,29.6591051
5.96365003,31.7926856
5.9744667,32.564553
5.99610003,34.210273
6.00691669,35.0882758
6.02855003,36.9661781
6.03936669,37.9712829
6.06100003,40.1284409
6.07068206,41.1628874
6.09004613,43.3736847
6.10426669,45.1291602
6.12157336,47.4336276
6.13455336,49.2954605
6.14753336,51.2833781
6.15618669,52.6844959
6.17349335,55.6862708
6.19080002,58.98357
6.20810669,62.61709
6.22541335,66.634791
6.24272002,71.093507
6.26002668,76.0609873
6.26868002,78.7602981
6.27733335,81.6185059
6.28598668,84.6484342
6.29464002,87.8642253
6.30329335,91.2815056
6.31194668,94.9175761
6.32060002,98.7916315
6.32925335,102.925013
6.33790668,107.341505
6.35088668,114.556038
6.35954001,119.803601
6.36819335,125.442201
6.37684668,131.51175
6.38982668,141.52441
6.39848001,148.882159
6.40713335,156.857349
6.41795001,167.803704
6.42876668,179.988501
6.43742001,190.756785
6.44174668,196.520036
6.45040001,208.886219
6.45905334,222.496284
6.46338001,229.82023
6.47203334,245.626747
6.47636001,254.163983
6.48501334,272.661684
6.49150334,287.921058
6.49799334,304.521788
6.50448334,322.623793
6.51097334,342.411139
6.51746334,364.096454
6.52395334,387.926296
6.53044334,414.187705
6.53693334,443.21623
6.54342334,475.405817
6.54775001,498.847764
6.55207667,524.057461
6.55856667,565.580526
6.56289334,596.034798
6.56722001,628.981399
6.57154667,664.690252
6.57587334,703.467207
6.58020001,745.659594
6.58452667,791.662728
6.58885334,841.927523
6.59318,896.969393
6.59750667,957.378662
6.59967,989.803976
6.602915,1041.47948
6.60724167,1116.59755
6.609405,1157.07964
6.61265,1221.81567
6.61481334,1267.85344
6.61805834,1341.61497
6.62022167,1394.17065
6.62346667,1478.53415
6.62563,1538.75444
6.628875,1635.5957
6.63212,1740.96528
6.635365,1855.74255
6.63861,1980.89142
6.641855,2117.46128
6.6451,2266.58394
6.648345,2429.46453
6.65159,2607.3634
6.65375334,2734.94084
6.65591667,2870.14171
6.65808,3013.32988
6.66024334,3164.8444
6.66240667,3324.9849
6.66457,3493.99347
6.668464,3821.00723
6.67019467,3975.76624
6.673656,4302.14729
6.67538667,4473.30633
6.678848,4829.5927
6.69096267,6135.71374
6.694424,6481.0808
6.69702,6714.83396
6.69875067,6854.58783
6.70048133,6978.98756
6.702212,7086.02033
6.70394267,7173.86149
6.70653867,7266.30615
6.70826933,7300.05843
6.70991347,7310.71701
6.712596,7282.9656
6.71432667,7235.85704
6.71605733,7166.80928
6.717788,7077.07729
6.71951867,6968.24114
6.72124933,6842.13909
6.72298,6700.79472
6.725576,6464.88181
6.72903733,6117.07582
6.73942133,4990.45445
6.74461333,4449.31133
6.74807467,4111.96173
6.74980533,3951.48059
6.75326666,3647.80703
6.75543,3469.88506
6.75759333,3301.04319
6.76083833,3064.41058
6.76408333,2846.92201
6.76732833,2647.45056
6.77057333,2464.74404
6.77381833,2297.50744
6.77706333,2144.45859
6.77922666,2049.69625
6.78247166,1917.58663
6.784635,1835.72314
6.78679833,1758.46566
6.78896166,1685.52343
6.79220666,1583.60706
6.79437,1520.29194
6.79653333,1460.406
6.79869666,1403.7314
6.80086,1350.06472
6.80302333,1299.21615
6.80735,1205.27746
6.81167666,1120.63934
6.81600333,1044.19442
6.82033,974.981757
6.82465666,912.167031
6.82898333,855.025022
6.83331,802.924432
6.83763666,755.31476
6.83979999,733.041269
6.84412666,691.285182
6.84845333,652.927194
6.85277999,617.620921
6.85494333,601.015422
6.85926999,569.726364
6.86143333,554.979637
6.86792333,513.989709
6.87441333,477.353089
6.88090333,444.489146
6.88739333,414.908726
6.89388333,388.197806
6.90037333,364.004366
6.90469999,349.12371
6.91118999,328.479498
6.91551666,315.733886
6.92200666,297.988601
6.92633332,286.994892
6.93282332,271.638698
6.93931332,257.516481
6.94796666,240.389909
6.95661999,224.976047
6.96527332,211.057503
6.97392666,198.450002
6.98257999,186.996571
6.99123332,176.562866
7.00204999,164.78033
7.00853999,158.308484
7.01719332,150.301712
7.02584665,142.937915
7.03449999,136.151463
7.04315332,129.884856
7.05180665,124.087552
7.06478665,116.175488
7.07343999,111.367562
7.08209332,106.894027
7.09507332,100.747411
7.10372665,96.9882892
7.11237998,93.4738098
7.12535998,88.617765
7.13833998,84.2087313
7.15131998,80.1960483
7.16862665,75.3877951
7.18593331,71.1196964
7.20323998,67.3190984
7.21189331,65.5747516
7.22919998,62.364764
7.23785331,60.8874477
7.25515998,58.1623975
7.26381331,56.905547
7.27895664,54.8600876
7.29193664,53.2504427
7.31573331,50.606873
7.33736664,48.5091181
7.34818331,47.5575217
7.36981664,45.8295264
7.38063331,45.0463323
7.40226664,43.6265967
7.43471664,41.8256344
7.45634997,40.8189968
7.48879997,39.5649305
7.52124997,38.5841873
7.55369997,37.8463794
7.58614997,37.3278509
7.61859996,37.0104386
7.65104996,36.8805537
7.67462588,36.8981437
7.71594996,37.1480245
7.74839996,37.5359081
7.77003329,37.8877573
7.81329996,38.8182235
7.835,39.4015609
7.86511,40.3453378
7.88637,41.1096477
7.91826,42.4167069
7.93952,43.4014147
7.97141,45.0614437
8.0033,46.9598881
8.03519,49.1222505
8.05645,50.725494
8.08834,53.3997927
8.12023,56.4359956
8.15212,59.8860469
8.17338,62.4467252
8.20527,66.7341835
8.2159,68.2953285
8.23716,71.6379531
8.24779,73.4278741
8.26905,77.2685153
8.29031,81.4927697
8.30094,83.7638541
8.3222,88.6585979
8.33283,91.2978968
8.35409,97.0046326
8.368972,101.374396
8.388106,107.504453
8.400862,111.946353
8.415744,117.528497
8.432752,124.49459
8.44976,132.165805
8.466768,140.639006
8.483776,150.028384
8.500784,160.469288
8.517792,172.123104
8.526296,178.463902
8.5348,185.183471
8.543304,192.312373
8.551808,199.884312
8.560312,207.936533
8.568816,216.510276
8.57732,225.651297
8.590076,240.539345
8.59858,251.334113
8.60921,265.922712
8.617714,278.562632
8.628344,295.716647
8.638974,314.558396
8.649604,335.315392
8.660234,358.254601
8.670864,383.690871
8.681494,411.997543
8.687872,430.541085
8.69425,450.387415
8.698502,464.40268
8.70488,486.703028
8.711258,510.670955
8.717636,536.475341
8.724014,564.306753
8.730392,594.38084
8.73677,626.942337
8.743148,662.269836
8.749526,700.681474
8.755904,742.541744
8.762282,788.269693
8.76866,838.348819
8.775038,893.339082
8.77929,933.044909
8.783542,975.439553
8.78992,1044.61247
8.794172,1094.85422
8.798424,1148.7643
8.802676,1206.6994
8.806928,1269.05928
8.81118,1336.29293
8.815432,1408.90573
8.819684,1487.46781
8.823936,1572.62371
8.828188,1665.10383
8.83244,1765.73761
8.836692,1875.46915
8.838818,1934.07736
8.842007,2027.08223
8.846259,2161.45825
8.848385,2233.4968
8.851574,2348.18102
8.8537,2429.37591
8.856889,2558.8773
8.859015,2650.73356
8.862204,2797.51757
8.86433,2901.8299
8.867519,3068.83819
8.869645,3187.74853
8.872834,3378.49157
8.87496,3514.55476
8.878149,3733.21529
8.881338,3970.95422
8.884527,4229.74258
8.887716,4511.74856
8.890905,4819.34409
8.894094,5155.10445
8.897283,5521.79687
8.900472,5922.35253
8.903661,6359.81435
8.90685,6837.25046
8.908976,7179.22035
8.911102,7541.08916
8.913228,7923.57427
8.916417,8537.17606
8.9191808,9108.3807
8.9225824,9861.33989
8.925984,10666.6678
8.9293856,11517.8986
8.9412912,14639.1141
8.9438424,15265.6296
8.9463936,15844.2931
8.9480944,16194.922
8.9497952,16511.4138
8.951496,16788.8005
8.9531968,17022.4745
8.9548976,17208.3652
8.9565984,17343.107
8.9582992,17424.1861
8.96,17450.0545
8.9617008,17420.2034
8.9634016,17335.1866
8.9651024,17196.5951
8.9668032,17006.9829
8.968504,16769.7516
8.9702048,16489.0018
8.9719056,16169.3656
8.9736064,15815.829
8.9761576,15233.2719
8.9795592,14385.8726
8.9889136,11913.7456
8.9923152,11042.3404
8.9957168,10212.4289
8.9991184,9432.63698
9.0016696,8883.44793
9.004646,8282.37943
9.007835,7685.44323
9.009961,7313.83425
9.012087,6962.54831
9.014213,6630.80551
9.016339,6317.7519
9.018465,6022.49029
9.020591,5744.10431
9.022717,5481.6769
9.025906,5115.98719
9.028032,4889.55539
9.030158,4676.0367
9.033347,4378.2426
9.035473,4193.61591
9.037599,4019.29567
9.040788,3775.72155
9.043977,3551.83766
9.047166,3345.79672
9.050355,3155.93001
9.053544,2980.73334
9.057796,2767.63749
9.059922,2669.07038
9.064174,2486.30397
9.0663,2401.53167
9.070552,2243.91997
9.072678,2170.61679
9.07693,2033.97114
9.081182,1909.37215
9.083308,1851.17245
9.08756,1742.23067
9.091812,1642.35205
9.093938,1595.51236
9.09819,1507.49852
9.102442,1426.40249
9.106694,1351.54012
9.110946,1282.30706
9.115198,1218.16827
9.11945,1158.64902
9.123702,1103.32715
9.127954,1051.82645
9.132206,1003.81096
9.136458,958.980022
9.14071,917.064051
9.144962,877.820827
9.149214,841.032309
9.153466,806.50185
9.157718,774.051777
9.164096,728.929756
9.168348,701.009458
9.1726,674.668853
9.178978,637.871188
9.185356,604.025205
9.19386,562.971287
9.202364,526.014952
9.206616,508.907706
9.21512,477.148654
9.219372,462.395454
9.227876,434.916502
9.232128,422.110598
9.240632,398.18701
9.244884,387.005332
9.253388,366.058695
9.25764,356.242172
9.266144,337.806586
9.274648,320.8302
9.2789,312.842603
9.287404,297.785527
9.30016,277.275773
9.308664,264.835791
9.32142,247.80366
9.329924,237.422568
9.34268,223.145773
9.351184,214.407208
9.36394,202.342773
9.372444,194.93137
9.380948,187.979649
9.389452,181.452816
9.402208,172.391187
9.410712,166.795223
9.42772,156.561645
9.444728,147.465912
9.461736,139.364781
9.478744,132.138477
9.495752,125.686441
9.51276,119.923978
9.531894,114.176891
9.551028,109.127188
9.56591,105.636243
9.58717,101.252311
9.5978,99.3077208
9.6164,96.2748059
9.635,93.6857258
9.64557436,92.4018947
9.66644102,90.2516806
9.67673331,89.3732533
9.69482664,88.1139915
9.71518164,87.1266274
9.73101331,86.6728864
9.74910665,86.4958338
9.76719998,86.6933611
9.78529331,87.2821241
9.80338665,88.2856022
9.82147998,89.735117
9.83957332,91.6711971
9.85766665,94.1453852
9.87575998,97.2226253
9.89385332,100.984419
9.90289999,103.153024
9.91194665,105.533017
9.92099332,108.14134
9.93456332,112.524246
9.94813332,117.539039
9.95717999,121.276843
9.96622665,125.365897
9.97979665,132.236219
9.99336666,140.116919
10.0069367,149.179036
10.0159833,155.978861
10.02503,163.470733
10.0295533,167.502615
10.0386,176.198568
10.0476467,185.829519
10.0566933,196.522524
10.06574,208.427134
10.0747867,221.720253
10.0838333,236.612249
10.0906183,248.980036
10.0951417,257.863621
10.099665,267.305697
10.1041883,277.351873
10.1087117,288.052448
10.113235,299.462991
10.1177583,311.644999
10.1222817,324.666656
10.126805,338.603698
10.1313283,353.540412
10.1358517,369.570785
10.140375,386.799836
10.1448983,405.345143
10.1494217,425.338632
10.153945,446.928642
10.1584683,470.282328
10.16073,482.678614
10.1652533,509.039419
10.1697767,537.683705
10.1743,568.869871
10.1788233,602.892026
10.181085,621.069651
10.1856083,659.989558
10.1901317,702.676591
10.1923933,725.577191
10.1969167,774.818416
10.1991783,801.303689
10.2037017,858.405475
10.2059633,889.20063
10.2104867,955.776274
10.2138792,1010.50906
10.2172717,1069.82177
10.2206642,1134.18291
10.2240567,1204.11209
10.2274492,1280.18433
10.2297108,1334.62267
10.2319725,1392.27514
10.235365,1485.25593
10.2376267,1551.9156
10.2398883,1622.59961
10.2432808,1736.73951
10.2455425,1818.63706
10.2478042,1905.50398
10.2500658,1997.62439
10.2523275,2095.28189
10.2545892,2198.75374
10.2568508,2308.30335
10.2591125,2424.17061
10.262505,2610.25052
10.2656713,2797.56222
10.2683853,2968.65544
10.272004,3211.50181
10.2756227,3469.83428
10.2792413,3740.93208
10.2891927,4508.92606
10.2928113,4771.63028
10.2955253,4951.95518
10.2982393,5111.97681
10.3000487,5204.71692
10.301858,5284.54176
10.3036673,5350.09164
10.3054767,5400.20075
10.307286,5433.9467
10.3090953,5450.69169
10.3107237,5450.952
10.3136187,5416.86131
10.315428,5373.71083
10.3172373,5314.65742
10.3190467,5240.76
10.320856,5153.29565
10.3226653,5053.70716
10.3244747,4943.5479
10.3271887,4762.01311
10.3308073,4497.92482
10.3407587,3727.38216
10.3461867,3324.55849
10.3498053,3073.39554
10.353424,2838.67065
10.357495,2595.2669
10.3608875,2409.13621
10.36428,2237.71079
10.3665417,2131.24463
10.3699342,1982.63454
10.3721958,1890.55078
10.3755883,1762.19714
10.37785,1682.72735
10.3801117,1607.81142
10.3823733,1537.17959
10.384635,1470.57251
10.3868967,1407.74246
10.3891583,1348.45408
10.39142,1292.48469
10.3936817,1239.62436
10.3959433,1189.6757
10.398205,1142.45356
10.4004667,1097.78458
10.4027283,1055.50666
10.40499,1015.46842
10.4072517,977.528598
10.4095133,941.555484
10.4140367,875.026714
10.41856,814.997298
10.4208217,787.175777
10.425345,735.487982
10.4298683,688.565645
10.4343917,645.868868
10.4366533,625.955736
10.4411767,588.735176
10.4434383,571.332113
10.4479617,538.724133
10.4502233,523.440921
10.4547467,494.738564
10.4570083,481.255009
10.4615317,455.876769
10.4637933,443.92883
10.4683167,421.393985
10.4705783,410.762826
10.4751017,390.671961
10.4818867,363.194879
10.48641,346.463047
10.493195,323.467281
10.4977183,309.397476
10.5045033,289.973469
10.5090267,278.037275
10.5158117,261.491172
10.520335,251.282998
10.52712,237.079108
10.5316433,228.284011
10.5361667,219.981743
10.54069,212.136456
10.5497367,197.688921
10.5587833,184.712257
10.56783,173.014281
10.5768767,162.432915
10.5859233,152.830756
10.59497,144.090745
10.6040167,136.112683
10.6130633,128.810424
10.62211,122.109591
10.6266333,118.96422
10.63568,113.047311
10.6447267,107.585943
10.6582967,100.149311
10.6718667,93.5039083
10.6854367,87.5405094
10.6990067,82.16807
10.7125767,77.310225
10.7261467,72.9025474
10.7397167,68.8903839
10.7532867,65.2271331
10.7668567,61.8728665
10.7804267,58.7932161
10.7894734,56.8778405
10.8075667,53.3428477
10.8166134,51.7096135
10.8347067,48.6818941
10.8437534,47.2769694
10.8618467,44.6620075
10.8708934,43.4438592
10.8889867,41.1682613
10.9116034,38.5930863
10.93422,36.27828
10.954575,34.3885578
10.9771917,32.4769121
10.9998084,30.7391334
11.022425,29.1540568
11.0450417,27.703678
11.0676584,26.3726017
11.090275,25.1475995
11.1128917,24.0172521
11.1468167,22.4779086
11.1694334,21.5436348
11.19205,20.6745554
11.225975,19.479826
11.2485917,18.748201
11.2712084,18.0630723
11.3051334,17.1138364
11.3390584,16.2483711
11.3729834,15.4566462
11.4182167,14.5011447
11.46345,13.6447677
11.5086834,12.873637
11.5313,12.516375
11.5765334,11.852224
11.59915,11.5431554
11.6443834,10.9662431
11.6670001,10.6967125
11.7122334,10.1917701
11.7348501,9.9550345
11.8027001,9.30082399
11.8705501,8.72031922
11.9384001,8.20244827
12.0062501,7.73821195
12.0741001,7.32022735
12.1492838,6.90372679
12.2098001,6.59959228
12.3002667,6.18975544
12.3455001,6.00269404
12.4359667,5.65983989
12.4812001,5.50252562
12.5716668,5.21284465
12.6169001,5.07934448
12.7073668,4.83256
12.7526001,4.71841587
12.8430668,4.50673918
12.9335334,4.31504692
12.9787668,4.22597849
13.1144668,3.98295608
13.2501668,3.77190308
13.3406334,3.64665514
13.4763335,3.47914081
13.6120335,3.33327391
13.7477335,3.20647454
13.8382001,3.13148513
13.9739001,3.03201993
14.0643668,2.97375796
14.2000668,2.89754
14.2905335,2.85374993
14.3810002,2.81529649
14.5464,2.7581834
