energy [eV],cross section [b]
1e-05,17.3770582
1.06565003e-05,16.833288
1.16412507e-05,16.1055824
1.2297751e-05,15.6697984
1.30404498e-05,15.2170326
1.42837957e-05,14.5396663
1.51126931e-05,14.1353096
1.59415904e-05,13.7629151
1.75114391e-05,13.1315301
1.90812879e-05,12.5797616
2.07885508e-05,12.0521394
2.27706421e-05,11.5156542
2.47527333e-05,11.0449734
2.62476266e-05,10.725838
2.7916019e-05,10.4003873
3.04186076e-05,9.96337757
3.2087e-05,9.7008926
3.41935124e-05,9.39732823
3.63000248e-05,9.12058703
3.84065373e-05,8.86693809
4.05130497e-05,8.6333388
4.31727325e-05,8.36318076
4.71622568e-05,8.00163917
5.1151781e-05,7.68326605
5.61889547e-05,7.33078993
6.12261285e-05,7.0227604
6.6704223e-05,6.72821074
7.09441804e-05,6.52405874
7.73041165e-05,6.24992692
8.42207593e-05,5.98779155
8.957413e-05,5.80610586
9.49275007e-05,5.64001456
0.000100280871,5.48740732
0.00010633714,5.32885324
0.000113096306,5.16716151
0.000119855473,5.01934805
0.000126614639,4.88353478
0.000138528347,4.66881773
0.000151329533,4.46698401
0.00016413072,4.28924947
0.000180293499,4.09247663
0.000191068685,3.97540595
0.000207231465,3.81723056
0.000220836216,3.69778018
0.000241243343,3.53792456
0.000254848094,3.44219557
0.00027023915,3.34273618
0.000287416511,3.24130857
0.000304593871,3.14858667
0.000321771232,3.06339236
0.000341203981,2.97487817
0.000373736187,2.84245536
0.000395424324,2.76340498
0.000417112461,2.69060312
0.000458187628,2.56716949
0.000499262795,2.4593006
0.000543933409,2.35615223
0.000578507749,2.28466023
0.00063036926,2.18866199
0.000686770382,2.09686478
0.000730423948,2.03324025
0.000774077514,1.97507673
0.000817731079,1.92163519
0.00086711636,1.86611112
0.000922233357,1.80948827
0.000977350354,1.75772547
0.00103246735,1.710165
0.00112961657,1.63497322
0.00123400266,1.56429305
0.00133838875,1.50205217
0.00147018664,1.43314427
0.00160198453,1.37292552
0.00174531913,1.31534204
0.00185625781,1.27543101
0.00202266584,1.22183915
0.00213360453,1.1896498
0.00227367572,1.15242276
0.00241374692,1.11848513
0.00255381811,1.08737937
0.00269388931,1.05873236
0.00287074322,1.02560204
0.00304759712,0.995399134
0.00322445103,0.967716467
0.00351295282,0.927128317
0.00384789646,0.885858371
0.00418284011,0.849650522
0.00457642124,0.812293426
0.0048583545,0.788372227
0.00528125438,0.756148939
0.00560020549,0.73430061
0.00595617444,0.712019921
0.00649012788,0.682101791
0.00684609684,0.664131802
0.00729554328,0.643349475
0.00774498973,0.62440349
0.00819443618,0.607038423
0.00864388262,0.591045976
0.00921135375,0.57255068
0.0100625604,0.547799171
0.0109137671,0.526003021
0.0119885008,0.501872144
0.0130632345,0.480784128
0.0142320432,0.460618958
0.0151366824,0.446642505
0.0164936413,0.427875166
0.0179693793,0.409929118
0.0191115769,0.397490738
0.0202537745,0.386119967
0.0219670709,0.370756806
0.0244667677,0.351307052
0.0271267196,0.333638764
0.0295564708,0.319630966
0.0322877377,0.305813277
0.0350190046,0.293645449
0.0384675025,0.280174265
0.0419160005,0.268401793
0.045666357,0.257144527
0.0485690729,0.249342146
0.0514717888,0.242209471
0.0558258627,0.232572467
0.0594908321,0.22529485
0.0649882862,0.215555548
0.0686532557,0.209723226
0.0727994358,0.203663653
0.0797405219,0.194598206
0.0843679127,0.189186586
0.0889953035,0.184202758
0.0977591197,0.175752887
0.106522936,0.16836863
0.116053878,0.16130763
0.127119074,0.15412816
0.138184269,0.147829457
0.14652964,0.143558846
0.155843584,0.139203817
0.169814501,0.133356135
0.179128445,0.129843906
0.190888233,0.125782136
0.20264802,0.122079406
0.214407808,0.118685782
0.226167595,0.115560539
0.241015504,0.111946375
0.263287367,0.107110054
0.28555923,0.102851622
0.313679687,0.0981376244
0.341800144,0.0940186779
0.372382079,0.0900806649
0.396052007,0.087351709
0.4315569,0.0836880598
0.470169654,0.0801857116
0.500055308,0.0777589181
0.529940962,0.0755409987
0.574769442,0.0725453845
0.606987933,0.0706013514
0.640906798,0.0687159182
0.691785096,0.0661534284
0.725703961,0.0645977432
0.797167689,0.0616533264
0.868631416,0.0590827868
0.946350605,0.0566275642
1.03658071,0.0541346327
1.12681082,0.0519511325
1.23283723,0.0497027991
1.30878692,0.0482660062
1.42271147,0.0463349212
1.50863337,0.045028967
1.60452747,0.0437005085
1.74836861,0.0419229976
1.84426271,0.0408594864
1.96533861,0.0396341273
2.0864145,0.0385220354
2.2074904,0.0375076194
2.40500152,0.0360303293
2.63430718,0.0345432038
2.78717762,0.0336642672
2.94004806,0.0328617439
3.23585188,0.0314924309
3.52160376,0.0303598952
3.8048715,0.029387306
4.09495455,0.0285198098
4.2922711,0.0279933517
4.68690419,0.0270718949
4.99459958,0.0264579412
5.45614266,0.0256805664
5.76383805,0.0252447049
6.14964781,0.0247787235
6.38160987,0.0245373812
6.845534,0.0241330097
7.15860234,0.0239139345
7.65730301,0.0236457512
8.2142,0.0234532147
8.652875,0.0233746297
9.26264111,0.0233653241
9.8197505,0.0234537664
10.161917,0.0235527374
10.84625,0.023851633
11.3331793,0.0241468207
11.8201085,0.0245122112
12.2559907,0.0249008152
12.8202875,0.025494311
13.2589625,0.0260301509
13.9082015,0.0269520716
14.4735355,0.0278915076
15.0388695,0.0289722167
15.5005918,0.0299710761
16.0730626,0.0313719443
16.5303813,0.0326356327
17.0973688,0.0344051221
17.6106185,0.0362276401
18.163349,0.0384621561
18.7160795,0.0410256605
18.9880782,0.042425639
19.3039141,0.0441802212
19.61975,0.0460876117
19.79522,0.047219492
20.093519,0.0492731533
20.3304035,0.0510302144
20.5585145,0.0528378751
20.84804,0.0553115657
21.2077535,0.0586973875
21.391997,0.0605809783
21.72539,0.0642787631
22.07633,0.0686258389
22.339535,0.0722366093
22.60274,0.0761894471
22.865945,0.0805284751
23.041415,0.0836608178
23.216885,0.0870049462
23.48009,0.0924613614
23.65556,0.0964250819
23.83103,0.100679401
23.9743497,0.104389973
24.18197,0.110179876
24.35744,0.115496033
24.53291,0.121244101
24.70838,0.127472232
24.88385,0.134235517
25.05932,0.141597225
25.23479,0.149630301
25.322525,0.153924489
25.497995,0.163127185
25.6515313,0.171921311
25.848935,0.184384476
25.9805375,0.193508887
26.1779413,0.208597903
26.3095438,0.219714992
26.375345,0.225626945
26.5069475,0.238226647
26.5727488,0.244945063
26.6824175,0.256821256
26.7701525,0.26698376
26.8578875,0.2777882
26.9456225,0.289290045
27.0333575,0.301550906
27.1210925,0.314639364
27.2088275,0.328631945
27.2965625,0.343614253
27.3842975,0.359682289
27.4720325,0.376944012
27.603635,0.405345379
27.69137,0.426159574
27.779105,0.448669182
27.86684,0.473064235
27.9107075,0.486035563
27.9984425,0.513676431
28.0642438,0.536026019
28.130045,0.559904455
28.1739125,0.576742815
28.2616475,0.612837937
28.305515,0.632199371
28.39325,0.673844708
28.480985,0.719839658
28.56872,0.77081391
28.656455,0.82751555
28.7222563,0.874331878
28.7880575,0.925311572
28.831925,0.961859827
28.8757925,1.00065409
28.91966,1.04188277
28.9635275,1.08575447
29.007395,1.13250063
29.0512625,1.18237865
29.09513,1.23567541
29.1389975,1.29271145
29.182865,1.35384579
29.2267325,1.41948168
29.2925338,1.5273851
29.3364013,1.60639271
29.3802687,1.69176947
29.4022025,1.73706284
29.44607,1.83334581
29.4899375,1.93795388
29.533805,2.05187717
29.5776725,2.17625757
29.62154,2.31241761
29.6654075,2.46189578
29.709275,2.62649032
29.7531425,2.80831372
29.79701,3.00986093
29.8189438,3.11893598
29.8518444,3.29409967
29.8737781,3.41926549
29.9066788,3.62092688
29.9286125,3.76551495
29.9505463,3.91899897
29.97248,4.08212469
29.9944137,4.25571766
30.0163475,4.44069375
30.0382813,4.63807119
30.060215,4.84898467
30.0931156,5.19354851
30.1150494,5.44418552
30.1369831,5.71350914
30.1589169,6.00342504
30.1918175,6.48170099
30.2137513,6.8331707
30.2247181,7.01976917
30.2442679,7.37198123
30.2614337,7.70365459
30.2747845,7.97739851
30.3014863,8.57070901
30.32342,9.10920755
30.3343869,9.39775013
30.3563206,10.0176623
30.3672875,10.3509405
30.3892212,11.069532
30.4001881,11.4572861
30.4199285,12.2086217
30.4352821,12.8453976
30.4484424,13.4317819
30.463796,14.1681771
30.481343,15.0865215
30.49889,16.0972351
30.516437,17.2131116
30.533984,18.4492329
30.551531,19.8234776
30.5603045,20.5689029
30.569078,21.3571645
30.5778515,22.1915999
30.586625,23.0758768
30.5953985,24.0140332
30.604172,25.0105231
30.6129455,26.0702687
30.6261058,27.7905756
30.6348793,29.0336347
30.6480395,31.0602722
30.656813,32.5312819
30.6699732,34.9411492
30.6787468,36.6991218
30.691907,39.5946901
30.7006805,41.7189061
30.7050672,42.8454124
30.7138408,45.2390619
30.7226142,47.8379603
30.7291944,49.9361244
30.7357745,52.1745631
30.7401612,53.7509935
30.7489348,57.1244682
30.7533215,58.9307003
30.762095,62.8078788
30.7664818,64.8903658
30.7752553,69.3756122
30.7818354,73.0489251
30.7884155,77.0188278
30.7949956,81.3177233
30.7993824,84.3844375
30.8037691,87.6258463
30.8103493,92.8450279
30.814736,96.5843475
30.8191228,100.550948
30.8257029,106.967957
30.8300896,111.58784
30.8344764,116.508475
30.8410565,124.511341
30.8454433,130.304645
30.84983,136.503541
30.8542168,143.145883
30.8586035,150.27393
30.8629903,157.934942
30.867377,166.181896
30.8717638,175.074291
30.8761505,184.679107
30.8805372,195.071904
30.8827306,200.590069
30.8871174,212.32852
30.8915041,225.090413
30.8936975,231.89119
30.8980843,246.413162
30.902471,262.283253
30.9046644,270.773965
30.9079544,284.267523
30.9101478,293.804044
30.9134379,308.986995
30.9156313,319.737
30.9189213,336.883757
30.9211147,349.046848
30.9244048,368.484409
30.9276948,389.479212
30.9309849,412.187217
30.9342749,436.781833
30.937565,463.455737
30.9408551,492.422756
30.9441451,523.919741
30.9474352,558.208304
30.9507253,595.576267
30.9540153,636.338555
30.9562087,665.566952
30.9584021,696.56317
30.9616921,746.619258
30.9638855,782.535513
30.9660789,820.628503
30.9693689,882.114574
30.9715623,926.176748
30.9737557,972.828259
30.9759491,1022.17167
30.9792391,1101.41973
30.9823099,1181.19774
30.9858193,1279.27516
30.9884513,1357.52139
30.9919607,1467.58039
30.9954701,1583.09623
31.005121,1910.48269
31.0086304,2022.54414
31.0112624,2099.50314
31.0130171,2146.16115
31.0147718,2188.3015
31.0165265,2225.26419
31.0182812,2256.43673
31.0200359,2281.27757
31.0217906,2299.33843
31.0235453,2310.28383
31.0253,2313.90631
31.0279321,2305.4956
31.0296867,2290.81345
31.0314415,2269.17223
31.0331962,2240.96735
31.0349509,2206.69757
31.0367056,2166.94377
31.0384602,2122.34591
31.0410923,2047.84858
31.0446017,1937.92599
31.0551299,1581.43893
31.060394,1410.0584
31.0639034,1303.18062
31.0656581,1252.32779
31.0691675,1156.08369
31.0713609,1099.68423
31.0735543,1046.15614
31.0768443,971.124771
31.0801344,902.151467
31.0834244,838.881438
31.0867145,780.919737
31.0900046,727.857463
31.0932946,679.289471
31.095488,649.214193
31.0987781,607.280735
31.1009714,581.292985
31.1031648,556.765095
31.1053582,533.605041
31.1086483,501.241576
31.1108416,481.133555
31.113035,462.112827
31.1152284,444.110403
31.1174218,427.06185
31.1196151,410.907042
31.1240019,381.058194
31.1283886,354.159563
31.1327754,329.860218
31.1371621,307.855593
31.1415489,287.881207
31.1459356,269.707137
31.1503224,253.133212
31.1547091,237.984858
31.1569025,230.896826
31.1612893,217.606844
31.1634826,211.373659
31.1678694,199.660034
31.1700628,194.153854
31.1744495,183.784211
31.1766429,178.899429
31.1810296,169.681328
31.183223,165.330262
31.1898031,153.213017
31.1963833,142.352359
31.2029634,132.583966
31.2073501,126.609027
31.2139303,118.362946
31.218317,113.297369
31.2248971,106.277867
31.2292839,101.948772
31.235864,95.9275053
31.2402508,92.200641
31.2468309,86.9993142
31.2512176,83.7692886
31.2577978,79.247223
31.2621845,76.4304629
31.270958,71.2245057
31.2797315,66.5273516
31.288505,62.275409
31.2972785,58.4146307
31.306052,54.89886
31.3148255,51.6884993
31.323599,48.7494313
31.3323725,46.0521397
31.341146,43.5709895
31.3455328,42.4043696
31.3543063,40.2064227
31.3630798,38.1738668
31.37624,35.4004616
31.3850135,33.7150554
31.393787,32.1464647
31.4069473,29.9899591
31.4201075,28.0421892
31.4332677,26.2771707
31.446428,24.6728255
31.4595883,23.2102998
31.4727485,21.8734174
31.4859088,20.6482369
31.499069,19.5226926
31.5078425,18.8224484
31.5253895,17.5299163
31.534163,16.9327811
31.55171,15.8261282
31.569257,14.8240533
31.5780305,14.3581738
31.5955775,13.4896788
31.6153179,12.6031981
31.6350583,11.8009499
31.6504119,11.228551
31.6723456,10.4801215
31.6942794,9.80379415
31.7162131,9.19061489
31.7381469,8.63297568
31.7491137,8.37291516
31.7710475,7.8866975
31.7820144,7.65924901
31.8039481,7.23277944
31.814915,7.03271973
31.8368488,6.65661279
31.8478156,6.47972262
31.8697494,6.14636364
31.8807162,5.98920501
31.9136169,5.55211315
31.9355506,5.2866543
31.9684513,4.92263214
31.990385,4.7003503
32.0232856,4.39400065
32.0452194,4.20603129
32.07812,3.94580475
32.1000538,3.78544449
32.1329544,3.56254156
32.1548881,3.42464585
32.1768219,3.29456249
32.1987556,3.1717134
32.2316563,2.99986709
32.25359,2.89290504
32.2974575,2.69536551
32.341325,2.51728284
32.3851925,2.3561878
32.42906,2.20999046
32.4729275,2.07691238
32.516795,1.95543256
32.5606625,1.84424398
32.60453,1.74221852
32.6264637,1.69433119
32.6703313,1.60425746
32.7141987,1.52113411
32.78,1.40798302
32.8238675,1.33937463
32.867735,1.27562718
32.9335363,1.18815527
32.9993375,1.10932013
33.0651388,1.0380237
33.13094,0.973336847
33.1967413,0.914469165
33.2625425,0.860744821
33.3283438,0.811583218
33.394145,0.766483335
33.4380125,0.738456429
33.5257475,0.686788478
33.569615,0.662947593
33.65735,0.618814097
33.745085,0.578909055
33.7889525,0.560375937
33.8766875,0.52586021
33.920555,0.509775268
33.9863563,0.486984627
34.096025,0.452228976
34.18376,0.427011047
34.271495,0.403825897
34.35923,0.382461585
34.446965,0.362733044
34.5347,0.3444781
34.622435,0.327554156
34.71017,0.311835426
34.797905,0.297210615
34.88564,0.283580962
34.973375,0.270858583
35.06111,0.25896507
35.148845,0.247830287
35.2804475,0.232414937
35.3681825,0.222915585
35.4778513,0.211830533
35.6094538,0.199575933
35.7410562,0.188344529
35.8726587,0.17802609
36.0042612,0.168524807
36.1358637,0.159757089
36.2674662,0.151649743
36.3990688,0.144138461
36.552605,0.136053406
36.64034,0.131732326
36.81581,0.123680173
36.903545,0.119925684
37.079015,0.112907655
37.16675,0.10962545
37.34222,0.103472828
37.51769,0.0978200206
37.605425,0.0951644219
37.780895,0.090165337
37.9562041,0.085551473
38.0437781,0.0833773007
38.2189262,0.0792689103
38.482775,0.0736273244
38.658245,0.0702008449
38.833715,0.0670070994
39.009185,0.0640256584
39.184655,0.0612382786
39.360125,0.0586286283
39.535595,0.0561820524
39.711065,0.0538853708
39.886535,0.0517267034
40.062005,0.0496953204
40.237475,0.0477815109
40.4085582,0.0460203355
40.5752547,0.0443966874
40.7507248,0.0427791292
40.9349682,0.0411745691
41.114825,0.039694339
41.37803,0.0376691166
41.7201965,0.0352622512
42.07991,0.0329753883
42.343115,0.0314422114
42.6107068,0.0299924395
42.9704203,0.0281994684
43.3345205,0.0265471894
43.518764,0.0257673625
43.887251,0.024310349
44.0714945,0.0236292827
44.4399815,0.0223533293
44.624225,0.0217553157
45.0629,0.0204286017
45.5202187,0.0191766932
45.9775374,0.0180425907
46.2824165,0.017344997
46.5500082,0.0167678522
46.9831998,0.0158973078
47.4799992,0.0149865925
47.9767987,0.0141590646
48.4137602,0.0134924623
48.7916375,0.0129576873
49.2303125,0.0123809427
49.6448604,0.0118756256
50.0352811,0.0114319457
50.4739561,0.0109675771
51.20435,0.0102664507
51.888683,0.00968176714
52.2308495,0.0094128027
52.95905,0.00888690782
53.397725,0.00859800453
53.8364,0.0083281943
54.520733,0.00794221622
55.205066,0.00759483851
55.94204,0.00725943539
56.679014,0.00696010977
57.415988,0.00669333037
58.3898465,0.00638569601
59.1005,0.00619047405
60.0137733,0.00597257159
60.9270466,0.00578885042
61.4605715,0.00569631148
62.3076643,0.00557058997
62.8850374,0.00549924292
63.7700643,0.00541165797
64.3600821,0.00536759161
65.1869845,0.00532485327
65.897638,0.00530583391
66.634612,0.00530357634
67.371586,0.00531948957
68.10856,0.0053541935
68.845534,0.00540855973
69.529867,0.0054776511
70.2142,0.00556585514
71.09155,0.00570923517
71.8197505,0.00585661503
72.5040835,0.00602113759
73.0897146,0.0061840417
73.8201085,0.00641904666
74.4057396,0.0066359591
75.039625,0.0069029469
75.6932508,0.00721786853
76.4173486,0.00762072303
76.9264957,0.00794295336
77.233,0.00815436128
77.6343876,0.00845301791
78.2255022,0.00894295642
78.5303813,0.00922168963
78.9877,0.00967718756
79.3167063,0.010035529
79.6106185,0.0103796234
80.163349,0.0110954062
80.531836,0.0116288315
80.900323,0.0122135993
81.2600365,0.0128401062
81.61975,0.0135285957
81.97069,0.014267749
82.3304035,0.015103783
82.67257,0.0159827289
83.02351,0.0169809559
83.391997,0.0181501617
83.72539,0.019331169
83.90086,0.020005807
84.07633,0.0207207804
84.2518,0.0214793263
84.515005,0.0227067544
84.690475,0.0235906838
84.865945,0.0245324288
85.041415,0.0255370997
85.30462,0.0271747155
85.48009,0.0283630612
85.743295,0.0303093105
85.918765,0.031728663
86.18197,0.03406578
86.35744,0.0357798078
86.445175,0.0366886321
86.620645,0.0386194365
86.796115,0.0407154116
86.88385,0.0418312789
87.05932,0.044212199
87.23479,0.0468123359
87.41026,0.0496594264
87.58573,0.0527857442
87.7173325,0.0553361873
87.848935,0.0580830787
88.0463387,0.0626178066
88.1779413,0.0659526724
88.2437425,0.0677240037
88.375345,0.0714942465
88.4411463,0.0735019303
88.5727488,0.0777868093
88.726285,0.0832900778
88.81402,0.0867077223
88.901755,0.0903451712
88.98949,0.0942217017
89.077225,0.0983587535
89.16496,0.102780227
89.252695,0.107512828
89.34043,0.112586478
89.4720325,0.120911079
89.5597675,0.126993849
89.69137,0.137031503
89.779105,0.144410127
89.8229725,0.148328288
89.9107075,0.156665704
89.954575,0.161104195
90.04231,0.170574184
90.0861775,0.175629477
90.1739125,0.186447076
90.21778,0.192239093
90.305515,0.204672929
90.39325,0.218367415
90.480985,0.233499087
90.56872,0.250276516
90.6345213,0.264086986
90.6783888,0.273944682
90.7222563,0.284369618
90.7661238,0.2954062
90.8099912,0.307103269
90.8538588,0.319514641
90.8977263,0.332699729
90.9415938,0.346724255
90.9854613,0.361661073
91.0293288,0.377591119
91.0731962,0.394604506
91.1170637,0.41280181
91.182865,0.442567448
91.2486662,0.475692998
91.2925338,0.499898793
91.3364012,0.526010501
91.3802687,0.554233705
91.4241363,0.584802473
91.4680038,0.617984232
91.5118712,0.654085642
91.5557388,0.693459703
91.5996062,0.736514425
91.6434737,0.783723438
91.6873413,0.835639075
91.7312088,0.892908603
91.7750762,0.956294484
91.8189438,1.02669988
91.8408775,1.0648634
91.8737781,1.12623707
91.8957119,1.17015655
91.9176456,1.21670271
91.9395794,1.26608926
91.9615131,1.31855207
91.9834469,1.37435203
92.0053806,1.43377825
92.0273144,1.49715182
92.060215,1.6004065
92.0821488,1.67530428
92.1150494,1.79792501
92.1369831,1.88731849
92.1698837,2.03446582
92.1918175,2.1423487
92.2027844,2.19954047
92.2247181,2.32102194
92.2466519,2.45286234
92.2576188,2.5230389
92.2795525,2.67274442
92.3014863,2.83618872
92.3124531,2.92359388
92.3343869,3.11098039
92.3453538,3.21150453
92.3672875,3.42774194
92.3782544,3.544144
92.4001881,3.79546434
92.4155418,3.98763566
92.428702,4.1642082
92.4484424,4.45188316
92.463796,4.69673747
92.481343,5.00211755
92.49889,5.33824511
92.516437,5.70938103
92.533984,6.1205486
92.551531,6.57770281
92.5603045,6.82569228
92.5734647,7.22476333
92.5822383,7.5105293
92.5910118,7.81354836
92.5997852,8.13523297
92.6129455,8.6562139
92.621719,9.03175333
92.6348793,9.64243398
92.6436528,10.0844949
92.656813,10.8066027
92.6655865,11.3317845
92.6787468,12.194005
92.6875203,12.8243912
92.691907,13.1579803
92.7006805,13.8652033
92.7050673,14.2402684
92.7138408,15.0372517
92.7182275,15.4609121
92.727001,16.3633926
92.7313878,16.8443501
92.7401612,17.8716396
92.744548,18.4206157
92.7533215,19.5966112
92.7577083,20.2269309
92.7664817,21.5814707
92.7708685,22.3098504
92.779642,23.8805557
92.7884155,25.6212345
92.7949956,27.0532246
92.8015758,28.6071481
92.8059625,29.7176921
92.8103493,30.8932803
92.8169294,32.7899162
92.8213161,34.1515484
92.8257029,35.598407
92.8300896,37.1376266
92.8344764,38.7770886
92.8388631,40.5255157
92.8432499,42.3925785
92.8476366,44.389019
92.8520234,46.5267923
92.8564101,48.8192296
