energy [eV],cross section [b]
1e-05,2260.0
1.063511490973796e-05,2191.5055065355323
1.1283139804346761e-05,2127.6671556745264
1.194382753949482e-05,2068.005724860401
1.2616935695558388e-05,2012.1076021254908
1.330227568096001e-05,1959.610054690981
1.3999599429159662e-05,1910.20139638197
1.5429405802659424e-05,1819.577704645548
1.69052779238447e-05,1738.3683035439276
1.8425444050402724e-05,1665.1419831013582
1.9988685100441038e-05,1598.729700599093
2.1593815498225194e-05,1538.186557283863
2.3241825843098523e-05,1482.671087462685
2.4929770368257895e-05,1431.6166637108217
2.6656747552228873e-05,1384.4841332656074
2.8421876197510103e-05,1340.8204545832482
3.022450150193935e-05,1300.2373535660283
3.206372023988608e-05,1262.4095306654312
3.3938832754621065e-05,1227.0537513718841
3.584915274817801e-05,1193.9255134183302
3.780168137598255e-05,1162.6945012168762
3.978844030812595e-05,1133.3056715507223
4.3862380086056685e-05,1079.4131070150966
4.806679824736874e-05,1031.1431173446197
5.239765015747228e-05,987.6269973310469
5.685225543914679e-05,948.1606483846803
6.142646035832141e-05,912.1884977530126
6.611729476945455e-05,879.247288841165
7.092186218637887e-05,848.9545842407645
7.542621539647387e-05,823.2250646735481
8.002212862335268e-05,799.2445953753971
8.470784907339284e-05,776.8331594497268
8.948165746147962e-05,755.8353861991715
9.434221626102647e-05,736.1150173691167
9.928776613793697e-05,717.5549700360988
0.00010942821919539259,683.5127582925336
0.00011989537911373466,653.006964775424
0.00013067668036654962,625.4999645865734
0.00014176347699804037,600.552614285604
0.0001531473606843219,577.8099686830332
0.00016483535694040521,556.9559365587106
0.00017680657383956576,537.7776679348545
0.0001890546176236268,520.0726335152385
0.00020157323867581333,503.67065113373195
0.00021435779301725436,488.42586810219444
0.0002274018748035807,474.2160877201991
0.0002407005219389796,460.93491475087984
0.0002542488670704726,448.4905034772123
0.0002680965636960839,436.75877295557365
0.000282187028014387,425.71904655267434
0.0003110801675629881,405.47464844691734
0.00034089868410403613,387.34233472479093
0.00037161389233583415,370.9957818159883
0.0004032067825239977,356.1704995764911
0.0004356478956129936,342.6577906456268
0.00046891616677754435,330.28363563848256
0.0005029910535983717,318.9043743820395
0.0005349367653588847,309.23924447633124
0.0005675318378086102,300.23113414760985
0.0006007638398087745,291.8124211969391
0.0006346205778691817,283.92474161290943
0.0006690925660022071,276.51691085131927
0.0007041673266828181,269.54494745880106
0.0007760853081076492,256.7572077608389
0.0008503203554287937,245.2979010120547
0.0009267833515929914,234.96507184876427
0.001005412977871691,225.5937588387341
0.0010861496008661136,217.05062908560777
0.0011690430468369987,209.21694493877246
0.0012539451463495503,202.01275066177092
0.0013408105536801415,195.36196741634018
0.001429594945382809,189.20066735730643
0.0015202653854946044,183.47406185271367
0.0016127764425743732,178.13624849149713
0.0017070929245145776,173.14726058158647
0.001803180311141502,168.47259686523358
0.0019013907543095412,164.06564712743602
0.002001322951162019,159.91864432278774
0.0022062384772817893,152.31396530638176
0.002417716949354436,145.50267731643
0.0026355549258785865,139.3621989852521
0.0028596175862780197,133.7931762773387
0.00308969600144507,128.71721336036148
0.003325640775716205,124.06894096238764
0.003567306218428522,119.79439405578117
0.003793871155121011,116.16374965722649
0.004025041478744457,112.77991047186606
0.00426072902534777,109.61747465200808
0.004500847316427822,106.65451812905043
0.0047453290755939135,103.87181375545234
0.004994085809914965,101.25284017879872
0.005504141526648408,96.449207329833
0.0060306303061993605,92.1445918446111
0.006572920113830844,88.26313047896859
0.007130576065701285,84.74285652311893
0.007703175230641692,81.53368432503031
0.008291070985771809,78.59101084363648
0.008893212485868147,75.88480121654732
0.009509278130614534,73.38647691344993
0.01013895356987834,71.07202384707841
0.010782005215677046,68.9208610173163
0.011438110859769805,66.91574547624266
0.012107020913176537,65.04166399091504
0.012788490552396937,63.28565638393198
0.013485017303959622,61.63021382533824
0.014193755053274977,60.07241867407032
0.01564705412360654,57.215769509177676
0.01714689882877877,54.65715262260528
0.01869184632377931,52.35052110548821
0.02028094043597551,50.25855324813246
0.02191269940122931,48.35180015618382
0.023586063677674678,46.60570627960874
0.0253,45.0
0.027109859730267843,43.47028748057187
0.028960886325534504,42.05661636183352
0.0308521999604652,40.745716680568655
0.032782939686724806,39.52632846521605
0.034752454531258255,38.38872084315211
0.03675986288881427,37.32466581469043
0.03880447298603637,36.32695106013055
0.04088560572770421,35.38930662023945
0.045156578422209416,33.672305130118396
0.04956657452183973,32.137825280651846
0.05411145428087984,30.75708862817703
0.058787201700655975,29.50723319759562
0.06359768859496978,28.368102647522395
0.06853254182906454,27.326534077820487
0.07358876611148464,26.369997071664017
0.07876343857086703,25.488081951837014
0.08405442785166065,24.67195390772357
0.08945873784870205,23.914288525711683
0.09497407964071401,23.208758221459846
0.10059821071967433,22.549944567559365
0.10779460006823312,21.78339051161701
0.11515467767607328,21.07498594796569
0.12267494516950221,20.418081166940045
0.13035197923381486,19.807033685550344
0.13818319146092561,19.236967267390906
0.14616507639981316,18.703758780532155
0.15429488341166786,18.20379406031968
0.1625699122686605,17.733931168239142
0.1795522131026451,16.87352475880255
0.19708730072729147,16.104581746680157
0.21515871462829939,15.412680969442278
0.2337504863360707,14.7863660655073
0.2528780110103163,14.215536493076973
0.2725000428488194,13.69359619285275
0.29260467193217254,13.214266049171691
0.31318027629874334,12.772329669940774
0.3342183812230443,12.3633598442788
0.35570707355019116,11.983686236164875
0.3776372520396712,11.630138030573491
0.399999996,11.300000059051424
0.4,521.8
0.4319752974713601,502.1196670561033
0.46476015126557074,484.088467413323
0.498335510016396,467.49894555533007
0.5326827704476129,452.17807137376025
0.5677882826341831,437.97848984353226
0.6036329727568864,424.7775946710035
0.6402022025182474,412.46917587696055
0.6774816233494274,400.96202982080075
0.7154763568555387,390.17210949953255
0.754156100681069,380.0362579964568
0.8335239618994781,361.49310585246366
0.9154995676270615,344.93176080814925
1.0,330.039
1.1114963026289466,313.8985574799604
1.227059598030863,299.5110570257032
1.346575197527706,286.59341526335993
1.4699309373220732,274.9222482533285
1.597054826259662,264.3156271224162
1.727829182499908,254.62995077696462
1.8621713165967722,245.74492278936935
2.0,237.561
2.1172479371464252,231.12535010487616
2.2367822210671373,225.08624044533664
2.4825590789136247,214.05344040674655
2.7370545842782588,204.21595668668584
3.0,195.382
3.2307263435080253,188.40980306473915
3.4671930674268827,181.99463551658974
3.709274566920422,176.06945747191122
3.9568477862123066,170.5779050803
4.209822009864305,165.47162414758097
4.468070356431038,160.7101115846957
4.731495051132705,156.25806587543448
5.0,152.085
5.478814685355978,145.2901197966609
5.972015310088089,139.16386262244995
6.47920555407266,133.60822214145938
7.0,128.544
7.7169217773110885,122.31851247469696
8.456346170807963,116.75085699502233
9.21759201530523,111.7380170054354
10.0,107.198
10.559113020051482,104.16904390896572
11.127726488313467,101.32991237197722
12.29274131871772,96.15141167368056
13.493736629737137,91.54341940328855
14.729457575391148,87.41345449257226
15.9990623503073,83.68747029820649
17.301288032010945,80.30751355258468
18.63522678422991,77.22574885930963
20.0,74.403
21.17997529909347,72.16086835865462
22.380750854445154,70.06774550165183
23.601904022514876,68.10869576463176
24.84302238416886,66.27076942252836
27.38374850130409,62.914286133642506
30.0,59.9234
32.325519540427976,57.552874613849774
34.703461906916715,55.386122228798584
37.13243311309599,53.39701915470095
39.61108433043852,51.56383689046898
42.13839727428791,49.86815427006526
44.713020565260834,48.294637439720084
47.33389746104654,46.830063141119396
50.0,45.4631
54.8081067323281,43.23340067273642
59.74697951101985,41.23787119718366
64.81231856825943,39.44023052522867
70.0,37.8115
73.57329816320214,36.78277197353349
77.1989648898875,35.81541320196306
84.60343721711261,34.043356147851235
92.20610871823853,32.45840228856861
100.0,31.0315
105.64000643514491,30.085681077620556
111.36891589349278,29.20254012868955
117.18481121511641,28.375836123027845
123.08582910031511,27.60015011619204
135.1368256604675,26.18340514614479
147.50871257279178,24.920883569626138
160.19246716249305,23.78772516453892
173.17513761810187,22.764596669757434
186.44732135453367,21.83570242393579
200.0,20.9882
211.85935967772153,20.3048264747078
223.91008857181313,19.669494778291654
236.14772501108027,19.07714729540171
248.56794589105417,18.523428647974704
261.167254882115,18.00453832666587
273.9413713385016,17.517203824707153
300.0,16.626
323.4066005306535,15.91477018941139
347.2953895339178,15.26824667781653
371.6516683168051,14.677716122139413
396.4613420290296,14.135995709333752
421.71364078197695,13.637054159573745
447.39472298711905,13.175898236847377
473.4936856396157,12.748258607709529
500.0,12.3505
548.241691182707,11.70140215241314
597.6849695273233,11.12391476401659
648.2852016743151,10.606466128580871
700.0,10.1399
735.856316845194,9.847401737548706
772.2016473598038,9.57311691687209
846.3183846527247,9.07258522204593
922.2749285082363,8.626999883566787
1000.0,8.22754
1056.5372053007636,7.971625438358961
1113.9460488970085,7.732928361586927
1172.2070769722907,7.509711351352348
1231.3014141818305,7.300468584404107
1351.925104819133,6.918796698898079
1475.6838515966608,6.579215568660807
1602.4861303770301,6.274866847131401
1732.2019477388824,6.00042666425605
1864.736735026008,5.751557520716927
2000.0,5.52474
2118.150623814406,5.354813106226244
2238.3387438594746,5.196347122572865
2360.521391069864,5.048178414252417
2484.656714858971,4.909299831040078
2738.6425949823383,4.655998393836257
3000.0,4.43064
3230.988213309864,4.270072678433446
3467.6459512925912,4.122473517601736
3709.845322326008,3.9862671184782923
3957.461271029181,3.8601310018850046
4210.401213465374,3.74293257038564
4468.536788934905,3.6337239521719744
4731.768822441729,3.531680284574429
5000.0,3.43609
5476.369687008082,3.30095540773582
5968.715856190143,3.1780146459472025
6476.703542924772,3.065606686642084
7000.0,2.96237
7709.192163475631,2.8524818026855137
8445.890786523054,2.752309577932499
9209.646251192657,2.660543684316697
10000.0,2.57611
11082.780344521596,2.4878773986506064
12214.319944349198,2.407224891781613
13394.09848101926,2.333147105116201
14621.554850092538,2.264818456623442
15896.480502891418,2.201534911125872
17218.144699093773,2.142730817833964
18586.13192045273,2.0879124181073223
20000.0,2.03666
22329.66465635466,1.9643483621759834
24773.65763949457,1.89853612179738
27330.851665102404,1.838321117514533
30000.0,1.78297
31262.3,1.75769
33454.13763985137,1.6945631695177066
35690.964501154725,1.6363868412691107
37971.68991050075,1.5825796507544958
40295.25532822104,1.5326501865359863
42660.8423331667,1.4861759773465373
45067.38910144015,1.4428001444085037
47514.049840861335,1.4022114227643416
50000.0,1.36414
54806.534021165986,1.2977061063815039
59744.86929873482,1.2382147364659035
64810.72722284582,1.184594799629448
70000.0,1.13599
71510.5,1.12173
74979.0,1.08662
78082.22386142,1.0472563393558647
81192.88014581236,1.010687165855979
84310.71955026254,0.9766236863450225
87435.50586789992,0.9448157037795771
90567.03436530023,0.9150451848529649
93705.0856495465,0.8871216315326504
100000.0,0.836165
104564.36730187302,0.8033097384893672
109142.31158426045,0.7729821719997186
113733.34317363144,0.7448998377537321
118337.0,0.718821
120000.0,0.701567
123017.0,0.681865
127260.6634859994,0.6594638476832679
131505.74740185388,0.6384911554896747
140000.0,0.600317
147409.76176619204,0.5774034856453827
154880.9929187323,0.5562591268003839
162411.70284548018,0.5366835904819431
170000.0,0.518506
173750.0,0.511578
180760.0,0.496635
190309.88428940164,0.4823335362416973
200000.0,0.468928
210524.87581125935,0.45063521383471344
221129.0,0.433777
231718.51803662462,0.41814466865203886
242378.0,0.403646
250000.0,0.395033
259390.0,0.385722
261899.0,0.381734
268127.0,0.370396
272043.0,0.363737
286021.77786007075,0.3459388949499942
300000.0,0.329801
316831.0,0.309594
318739.0,0.306424
326371.0,0.297463
337451.36340544367,0.2850105253190316
348464.0,0.273525
360515.0,0.262978
380247.9768549941,0.24970115950915317
400000.0,0.237706
412734.0,0.231884
422375.0,0.228129
460544.43473372766,0.22017024767204219
500000.0,0.212866
549304.5023563158,0.20228931824413937
600000.0,0.19284
649390.6641568589,0.1849892632232609
700000.0,0.177837
749820.9846484959,0.16786828593333844
800000.0,0.158988
849958.1787523908,0.1500300302138447
900000.0,0.142034
950188.8489006587,0.13296994434740794
1000000.0,0.124965
1025301.5624183601,0.12036865259896842
1050396.752405733,0.11608153121393228
1100000.0,0.10832
1150355.737168919,0.10132768871223444
1200000.0,0.0951422
1250266.8962858706,0.08982940496274366
1300000.0,0.0850545
1350206.8501195875,0.08085870481706213
1400000.0,0.0770424
1450216.0072651382,0.07339623950237008
1500000.0,0.0700659
1550226.8382058085,0.06686031434090416
1600000.0,0.0639225
1650279.3659411846,0.06092339753375739
1700000.0,0.0581785
1750303.8192673714,0.05546491574915035
1800000.0,0.0529788
1850366.892224936,0.05039123912193039
1900000.0,0.0480282
1950394.7340381315,0.045669506756747
2000000.0,0.0435155
2039520.4639018716,0.04163152346567014
2078406.9045403805,0.039890470437583765
2116690.554143835,0.03827715458504811
2154400.3354018517,0.03677842742602547
2191562.0388779747,0.03538289038314054
2228201.0109210405,0.03408053246709588
2300000.0,0.0317214
2351778.7013931586,0.02989090331704728
2402318.3320648754,0.028241372645399165
2451700.7961025615,0.026748102675869356
2500000.0,0.0253906
2551966.750841752,0.023871715970614233
2602560.5921641607,0.02250718036174701
2651876.551398753,0.02127541500316517
2700000.0,0.0201586
2740435.0332732215,0.019162140535954768
2779933.3833972486,0.018249422277715744
2818549.739113647,0.01741071675097205
2856334.0987872225,0.016637711030703058
2893330.762644003,0.015923292239448272
2929582.4430078324,0.015261278917247236
2965127.141024245,0.014646332932439578
3000000.0,0.0140738
3036258.5797907687,0.013418012401986267
3071678.9847480594,0.012813909173671206
3106308.002080202,0.012255862651636954
3140188.597306043,0.01173901309146225
3173359.163195371,0.01125916058741136
3205856.6351883383,0.010812622768675518
3268962.4070250355,0.010007047339056302
3329733.756486327,0.00930106594234065
3388383.529308056,0.00867788500337676
3445087.3912778078,0.008124300583754452
3500000.0,0.00762971
3536324.7937443783,0.0072846981714802285
3571803.5574501194,0.006965967505055559
3606482.5427515507,0.00667075453414456
3640404.3125763526,0.006396659943291942
3706127.500938911,0.005903737426894255
3769251.23983578,0.005473370634366913
3830004.0551511985,0.005094870654012137
3888598.7349019833,0.0047597176617059055
3945212.0706641125,0.004461166827277503
4000000.0,0.00419377
4036011.9932461637,0.004019647899156052
4071241.9357446227,0.0038577109714770623
4139510.793353761,0.0035658192685473853
4205087.17082519,0.0033102681314486795
4268213.810414216,0.003084933444839908
4329093.120454666,0.002884990338135753
4387914.1219837675,0.002706530863954968
4444835.947207281,0.0025464119766230027
4500000.0,0.00240206
4569883.3386990465,0.002238868563016716
4637314.746151189,0.002094040958593447
4702491.9811938945,0.001964767960606629
4765589.833216469,0.0018487716143969666
4826757.686996521,0.0017441970616771433
4886136.453015261,0.0016494994116546355
4943847.429779923,0.0015634010422478836
5000000.0,0.00148483
5067953.520823619,0.0014075356229746227
5134154.893163741,0.0013370207875519399
5198712.843725945,0.001272466969645962
5261726.255464843,0.0012131790779120193
5323282.41429402,0.001158565933854465
5383464.960310211,0.0011081163865579735
5442348.056297695,0.0010613913965524966
5500000.0,0.00101801
5629036.191193026,0.0009616945702900674
5755266.695850442,0.0009107556720209047
5878867.97281462,0.0008644819873563534
6000000.0,0.00082228
6250073.975899509,0.0007886646580494907
6500000.0,0.000757681
7000000.0,0.000768608
7500000.0,0.000823796
8000000.0,0.000929592
8241835.2201214265,0.0009935269839006125
8500000.0,0.00106438
8741921.591939947,0.0011383232243024454
9000000.0,0.00122041
9500000.0,0.00136371
10000000.0,0.0014823
10500000.0,0.00156787
11000000.0,0.00159989
11500000.0,0.00159181
12000000.0,0.00155545
12500000.0,0.00150787
13000000.0,0.00145493
13500000.0,0.00135972
13751751.450047186,0.0013066203683677704
14000000.0,0.00125718
14252536.427626254,0.0011971877671576397
14500000.0,0.00114213
14752960.929077076,0.0010825717063762386
15000000.0,0.00102831
15253555.280438846,0.0009680453597967372
15500000.0,0.000913729
15752900.709453057,0.0008677071455848724
16000000.0,0.000825637
16253165.760203298,0.000781867993271064
16500000.0,0.00074203
17000000.0,0.000692056
17252062.66120954,0.0006650153223766557
17500000.0,0.000639809
18000000.0,0.000594705
18500000.0,0.000555038
19000000.0,0.000519317
19500000.0,0.000500876
20000000.0,0.000472931
