energy [eV],cross section [b]
1e-05,1222.75044
1.0614493e-05,1186.82914
1.15362326e-05,1138.42868
1.24579721e-05,1095.50447
1.32235058e-05,1063.32134
1.39890395e-05,1033.81752
1.513734e-05,993.832173
1.59969567e-05,966.761064
1.69506564e-05,939.170789
1.79043562e-05,913.815423
1.88580559e-05,890.408669
2.05230222e-05,853.526841
2.17111387e-05,829.844159
2.28992552e-05,808.029405
2.48274477e-05,776.018023
2.7047676e-05,743.486129
2.92679042e-05,714.730044
3.18519498e-05,685.125043
3.36959192e-05,666.114982
3.64618734e-05,640.351409
3.85324641e-05,622.908805
4.08296761e-05,605.13169
4.42754941e-05,581.107071
4.65727061e-05,566.594213
4.94345664e-05,549.949118
5.22964267e-05,534.689764
5.51582869e-05,520.633964
5.80201472e-05,507.631392
6.15854448e-05,492.718476
6.69333911e-05,472.624772
7.22813374e-05,454.804561
7.8943794e-05,435.190004
8.56062506e-05,417.912325
9.28145783e-05,401.356063
9.83479582e-05,389.901816
0.000106648028,374.422146
0.000115628143,359.588818
0.000122521612,349.326563
0.000129415081,339.895587
0.00013630855,331.189401
0.000144049217,322.168101
0.000152637082,312.973791
0.000161224947,304.524254
0.000169812811,296.724081
0.000184805482,284.433413
0.000195504219,276.541289
0.000206202957,269.271642
0.000223565924,258.604025
0.000243558611,247.762951
0.000263551297,238.180145
0.000286820082,228.314443
0.000303424637,221.979446
0.000328331471,213.393879
0.000346976703,207.581229
0.000367662612,201.657106
0.000388348521,196.212857
0.000409034429,191.18701
0.000432262608,185.979257
0.000458033055,180.671631
0.000483803503,175.793941
0.00050957395,171.291113
0.00053851155,166.625308
0.000586668677,159.640134
0.000634825805,153.465695
0.00069087419,147.108979
0.000750868205,141.109705
0.00081086222,135.789217
0.000860689138,131.800093
0.000935429514,126.425138
0.00101016989,121.658332
0.00107224412,118.08434
0.00113431836,114.807892
0.00119639259,111.789868
0.00125846683,108.997991
0.00133579874,105.79593
0.00141313065,102.860449
0.00149046255,100.156499
0.0016159644,96.188673
0.00176047421,92.156331
0.00190498403,88.5920034
0.00207317391,84.9224542
0.00225320383,81.4592469
0.00243323376,78.3878842
0.00258275427,76.0850803
0.00273227479,73.9739908
0.00295655556,71.1129177
0.00321758806,68.1673842
0.0034038603,66.2759897
0.00359013254,64.5337764
0.00377640479,62.9221114
0.00412449094,60.2085018
0.00435654838,58.5830557
0.00458860582,57.0825295
0.00484918279,55.527694
0.0051382793,53.9430413
0.00557192407,51.8014883
0.00604109839,49.7493571
0.00658133182,47.6638609
0.00712156526,45.8204203
0.0075259835,44.5723652
0.00797466438,43.3003766
0.00864768568,41.5813693
0.00937584924,39.9341415
0.00993481462,38.7945292
0.01049378,37.7472313
0.0110527454,36.780422
0.0116804068,35.7786215
0.0123767643,34.7576105
0.0134213006,33.377784
0.0141176581,32.5442567
0.0149851783,31.5882693
0.0162864587,30.3001734
0.017587739,29.1578229
0.0192088704,27.9004526
0.0202896247,27.147293
0.0219107562,26.1238342
0.0236053781,25.1687865
0.0253,24.3113824
0.0272963589,23.4056172
0.0289737011,22.7181313
0.0306510433,22.0878833
0.0323283855,21.5073478
0.0340057277,20.9703156
0.0360953559,20.3543857
0.0392297982,19.5244865
0.0413194265,19.0244967
0.0436658671,18.5064136
0.0475707466,17.7307988
0.0514756261,17.0452134
0.056020378,16.3393975
0.060885066,15.673279
0.065749754,15.0825368
0.0697900305,14.6396238
0.0758504452,14.0428504
0.08191086,13.5136082
0.0869442252,13.1168066
0.0919775903,12.753045
0.0970109555,12.4179794
0.102044321,12.1080255
0.108314873,11.752539
0.117720701,11.2735664
0.123991254,10.9850041
0.131032448,10.6860033
0.142750203,10.2383817
0.154467958,9.84272695
0.16810584,9.43540716
0.182703786,9.05100712
0.197301733,8.71011455
0.209425786,8.45453483
0.227611867,8.11018133
0.245797948,7.80480598
0.26090206,7.57585707
0.276006172,7.36597803
0.291110285,7.17266147
0.306214397,6.99383848
0.325031058,6.78875299
0.353256049,6.51243937
0.37207271,6.34597898
0.393201913,6.17350389
0.428364528,5.9153129
0.463527144,5.68711262
0.504451674,5.45220207
0.548257163,5.23052852
0.592062651,5.03396176
0.628444488,4.88660023
0.683017243,4.68807164
0.737589998,4.51203416
0.782914388,4.3800669
0.828238779,4.2591026
0.873563169,4.14769425
0.91888756,4.04464793
0.975352559,3.92647997
1.06005006,3.76729364
1.11651506,3.67140834
1.17991953,3.57207044
1.28543543,3.42338925
1.39095134,3.29200662
1.51375759,3.15679202
1.64520902,3.02922976
1.77666044,2.91614573
1.88583498,2.83139033
2.0495968,2.71723798
2.21335861,2.61605222
2.34936796,2.54022161
2.4853773,2.47073324
2.62138664,2.40675258
2.75739598,2.34759108
2.92683604,2.27976969
3.18099613,2.18844699
3.35043619,2.13346413
3.54070019,2.07652342
3.85733212,1.99134524
4.17396405,1.91612907
4.54248081,1.83877711
4.80545359,1.78915843
5.19991276,1.72198345
5.65900991,1.65292153
5.98662067,1.60863304
6.4780368,1.54869172
6.84591046,1.50816854
7.25404703,1.46692221
7.66218359,1.42906961
8.07032016,1.39417496
8.52861614,1.35807141
9.03707154,1.32133744
9.54552693,1.28763953
10.0539823,1.25658766
10.6249262,1.22447423
11.5750746,1.17652926
12.8419393,1.12130511
14.0256316,1.07683137
15.2093239,1.0378363
16.4899989,1.0006522
17.4730927,0.975045789
18.9477332,0.940616288
20.5431947,0.907840533
21.7679301,0.88530628
22.9926655,0.864711916
24.8297686,0.836923881
27.1147646,0.80668444
30.1687498,0.772230003
31.8832576,0.755313488
33.78406,0.738256682
36.6352637,0.715517765
39.7200733,0.694118397
43.2720948,0.672833956
48.0081236,0.648919765
52.4332221,0.630242398
56.8583206,0.614397047
61.06694,0.601487328
64.4274852,0.592460029
71.1485755,0.577258237
76.7983874,0.566936514
81.3769209,0.559947408
88.2447211,0.55142772
92.8232546,0.54688822
99.6028253,0.541619939
104.948201,0.538554796
115.638951,0.534929448
127.44796,0.534292162
140.724164,0.5372256
148.20663,0.540421626
160.63847,0.548031277
173.37473,0.558698546
187.190878,0.573517043
200.467082,0.591001275
210.424235,0.606290062
223.586823,0.629542508
236.976643,0.657039661
250.252847,0.688538215
263.529051,0.72477376
276.015022,0.763756819
282.653124,0.78664805
290.081459,0.81423062
296.719561,0.840782689
303.357663,0.869286957
313.314816,0.916076699
319.952918,0.950241924
326.59102,0.987043293
333.229122,1.02673417
339.867224,1.06960091
347.009138,1.11964004
353.143428,1.16620378
359.78153,1.22072851
366.419632,1.2800222
373.057734,1.34463549
379.695836,1.41520216
386.333938,1.4924545
392.97204,1.57724197
399.610142,1.67055415
402.929193,1.72076141
407.907769,1.80096524
414.545871,1.91800624
417.864922,1.98132283
422.843499,2.08295623
426.16255,2.1555389
430.892308,2.26631643
434.460177,2.3561157
437.779228,2.44491513
441.098279,2.53921012
446.076856,2.69196674
449.395907,2.80210048
454.374483,2.98121207
457.693534,3.11086798
462.672111,3.32263261
465.991162,3.47660463
470.969738,3.72926967
474.28879,3.9138745
479.267366,4.21837795
480.926892,4.32800432
484.245942,4.56074224
485.905468,4.68433519
489.224519,4.94729173
490.884044,5.08723707
494.203096,5.38566423
495.862621,5.54485254
499.181672,5.88512918
500.841198,6.06707952
504.160248,6.45698947
507.479299,6.88516233
510.79835,7.35645247
513.287639,7.74154068
516.60669,8.30220513
519.095978,8.7620068
522.415029,9.43393423
524.904317,9.98699139
526.563843,10.3814414
528.223368,10.7980968
529.882894,11.2384429
531.542419,11.7040636
533.201945,12.1966441
534.86147,12.7179739
537.844225,13.7333533
539.840047,14.4739092
541.499572,15.1301833
543.159098,15.8256496
544.818623,16.5626378
546.478149,17.3435142
548.967437,18.6022896
551.456725,19.9728794
553.946013,21.4623077
556.435302,23.0761795
558.92459,24.8177211
561.579831,26.815514
564.235072,28.9508033
568.217933,32.3714933
575.519845,38.9069632
578.175086,41.1457724
580.166516,42.6843822
582.157947,44.0514511
583.485567,44.8446387
584.813188,45.5279957
586.140808,46.08963
587.468429,46.5192358
588.796049,46.8085307
590.123669,46.9516277
591.45129,46.9453125
593.44272,46.6556365
594.770341,46.2803377
596.097961,45.7665121
597.425582,45.1230291
598.753202,44.3607281
600.080822,43.491971
601.408443,42.5301649
603.399873,40.943609
606.055114,38.632938
613.357026,31.8824069
617.339888,28.3533773
619.995128,26.154582
622.650369,24.1014669
625.30561,22.2015076
627.794898,20.5596046
630.284187,19.0486361
631.943712,18.1110206
634.433,16.8035288
636.092526,15.9942376
637.752051,15.2318741
639.411577,14.5138778
641.071102,13.8377209
642.730628,13.2009382
644.390153,12.6011486
646.049679,12.03607
647.709204,11.5035285
649.36873,11.0014635
651.028255,10.5279292
652.687781,10.0810949
654.347306,9.65924192
656.006832,9.26076072
658.49612,8.70359611
660.155645,8.35717637
661.815171,8.02928535
664.304459,7.5696327
666.793747,7.14539145
669.696086,6.69112616
671.772324,6.39038689
675.091375,5.94741864
678.410426,5.54617592
680.069952,5.35967749
683.389003,5.01223189
685.048528,4.85031417
688.367579,4.54790004
690.027104,4.40661352
693.346156,4.14209555
695.005681,4.01821784
698.324732,3.78576053
701.643783,3.57195721
703.303308,3.47145677
706.622359,3.28219443
709.941411,3.10731064
711.600936,3.02482516
714.919987,2.86898316
718.239038,2.72437065
721.558089,2.58996577
726.536666,2.40553118
729.855716,2.29286726
733.174767,2.18762012
736.493819,2.08916947
739.81287,1.99695716
743.13192,1.91047995
746.450971,1.82928333
749.770022,1.75295607
753.089074,1.68112542
756.408124,1.61345301
761.386701,1.51907554
764.705752,1.46051172
768.024803,1.40514311
773.003379,1.32759788
777.981956,1.25606765
784.620058,1.1690342
791.25816,1.09042837
794.577211,1.05395646
801.215313,0.986101991
804.534364,0.95451575
811.172466,0.895570868
814.491517,0.868049813
821.129619,0.816546474
824.44867,0.792433493
827.767721,0.769333195
833.470289,0.731851671
842.235684,0.679180561
851.001078,0.631801957
857.63918,0.599027298
860.958231,0.583552377
870.915384,0.540436969
877.553486,0.514199545
887.510639,0.4781611
894.148741,0.45612405
900.786843,0.435520343
907.424945,0.416230576
914.063047,0.398147393
920.701149,0.381174069
927.339251,0.365223277
933.977353,0.350216023
940.615455,0.336080715
947.253557,0.322752354
953.891659,0.310171821
960.529761,0.298285257
967.167863,0.287043513
973.805965,0.276401669
983.763118,0.261474718
997.039322,0.243315811
1010.31553,0.226918281
1020.27268,0.215644538
1032.44803,0.202924315
1043.50604,0.192286871
1053.46319,0.183382031
1065.07987,0.173725074
1073.37749,0.16726956
1089.97275,0.155355367
1106.56801,0.144626414
1114.86563,0.139658859
1131.46089,0.130435276
1148.05614,0.122064953
1164.6514,0.114447864
1181.24665,0.107498064
1197.84191,0.101141389
1214.43716,0.0953135841
1231.03242,0.0899587681
1247.62767,0.085028165
1264.22293,0.0804790552
1280.81818,0.0762739015
1293.18492,0.0733440541
1309.78018,0.0696622193
1322.30632,0.067058012
1347.1992,0.0622856572
1372.09208,0.057991045
1396.98497,0.0541138024
1421.87785,0.0506026886
1446.77073,0.0474139989
1471.66362,0.044510282
1496.5565,0.0418593053
1521.44938,0.0394332118
1546.34226,0.0372078324
1562.93752,0.0358252463
1579.53277,0.0345168934
1601.97293,0.0328568045
1621.02091,0.0315383846
1645.91379,0.0299300476
1670.80668,0.0284401522
1687.40193,0.0275071668
1720.59244,0.0257726333
1753.78295,0.024196071
1770.37821,0.0234612503
1803.56872,0.0220883895
1836.75923,0.0208326633
1869.94974,0.0196814458
1903.14025,0.0186237469
1936.33076,0.0176499668
1969.52127,0.016751692
1999.73432,0.015993392
2032.92483,0.0152195305
2052.49754,0.014789915
2085.68805,0.0141030971
2118.87856,0.0134646349
2152.06907,0.0128702334
2185.25958,0.0123160589
2235.04535,0.0115528182
2268.23585,0.011084969
2301.42637,0.010646801
2351.21213,0.0100400939
2400.9979,0.00948786571
2450.78366,0.00898404908
2508.22846,0.00845605852
2550.35519,0.00810133973
2616.73621,0.00759184938
2649.92672,0.00735763193
2716.30774,0.00692582722
2749.49825,0.00672668233
2782.68876,0.00653777332
2832.47453,0.00627223012
2882.26029,0.00602636797
2915.4508,0.00587253604
2981.83182,0.00558699174
3015.02233,0.00545445317
3081.40335,0.00520799495
3114.59386,0.00509341308
3186.04996,0.00486456523
3280.54641,0.00459566231
3380.11794,0.00434871249
3479.68947,0.0041342295
3546.07049,0.00400723138
3645.64202,0.00383815549
3712.02304,0.00373844729
3807.00239,0.00361218622
3892.79737,0.00351336383
3985.41949,0.00342154048
4043.03393,0.00337168812
4100.64837,0.00332710853
4215.87725,0.00325293945
4273.49169,0.0032230039
4388.72057,0.00317675252
4503.94945,0.00314802413
4561.56389,0.00314007311
4676.79277,0.00313686311
4734.40721,0.00314161172
4792.02165,0.00315063552
4879.87502,0.00317275834
4970.59182,0.00320649337
5031.06968,0.00323535486
5152.02541,0.00330918938
5212.50327,0.00335462173
5333.459,0.00346395947
5429.9608,0.00357045489
5478.2117,0.00363072278
5574.7135,0.00376664278
5622.9644,0.00384292222
5719.4662,0.00401395353
5767.7171,0.00410956242
5815.968,0.00421255188
5912.4698,0.00444296992
5977.06645,0.00461756565
6057.61568,0.0048614573
6129.59885,0.0051073659
6201.9752,0.00538519885
6274.35155,0.00569836374
6317.77736,0.00590554116
6356.37808,0.00610324208
6398.16336,0.00633300071
6436.76408,0.00656118414
6501.90279,0.00698523784
6540.50351,0.00726254309
6581.32378,0.00757966832
6619.9245,0.00790470951
6656.30567,0.00823608688
6699.15247,0.00866147684
6731.57708,0.00901188485
6761.68564,0.00936207814
6804.53244,0.00990745724
6830.29842,0.0102658288
6858.18744,0.0106834179
6886.94498,0.0111510477
6916.08852,0.0116698781
6954.68924,0.0124425279
6972.44557,0.0128381558
6996.76402,0.0134315325
7012.59032,0.0138563353
7025.71456,0.0142366172
7043.4709,0.0148000903
7051.57705,0.0150796262
7066.63133,0.0156441658
7082.07162,0.0162991522
7089.79176,0.0166628319
7101.37198,0.0172651328
7109.09212,0.0177125801
7116.81226,0.0182051321
7124.53241,0.0187522382
7132.25255,0.019366173
7139.9727,0.0200631248
7146.72782,0.0207579504
7152.51793,0.0214318039
7155.41298,0.0218009152
7161.20309,0.0226155628
7164.09815,0.023066992
7168.92324,0.023897151
7172.78331,0.024643212
7176.64338,0.0254762005
7180.50345,0.0264124133
7182.43349,0.0269254003
7186.29356,0.0280562303
7190.15363,0.0293517303
7193.04869,0.030453448
7195.94374,0.0316882228
7198.83879,0.0330802533
7201.73385,0.0346595335
7204.6289,0.0364636026
7207.52396,0.038539943
7209.45399,0.0401047613
7210.41901,0.040949318
7212.34905,0.0427785554
7213.31406,0.0437704922
7215.2441,0.0459299027
7216.20912,0.0471070331
7218.13915,0.0496841986
7219.10417,0.0510973102
7221.03421,0.0542109481
7221.99923,0.0559295326
7223.44675,0.0587392815
7224.41177,0.0607850581
7225.8593,0.0641485732
7226.82432,0.0666119411
7228.27184,0.0706877507
7229.23686,0.0736926382
7230.68439,0.0787003531
7231.64941,0.0824203169
7232.85568,0.0875681547
7234.06195,0.0933553072
7235.02697,0.0985193515
7235.99199,0.104231691
7236.4745,0.107318213
7237.43951,0.114009557
7238.40453,0.121481876
7238.88704,0.12554963
7239.6108,0.132116559
7240.09331,0.136834823
7240.81708,0.144481237
7241.29959,0.149997032
7242.02335,0.158974034
7242.50586,0.165478359
7243.22962,0.176114482
7243.71213,0.183859069
7244.43589,0.196590765
7244.9184,0.205912796
7245.64217,0.221329892
7245.88342,0.226893551
7246.36593,0.238730111
7246.60718,0.245030137
7247.08969,0.258469009
7247.5722,0.273140146
7247.81346,0.280985446
7248.29597,0.297804085
7248.53722,0.30682612
7249.01973,0.32623265
7249.26098,0.336678944
7249.74349,0.3592325
7250.08125,0.376477435
7250.51551,0.400641892
7250.94977,0.427337103
7251.33577,0.453484875
7251.72178,0.482221762
7252.10779,0.513900578
7252.49379,0.548936181
7252.8798,0.587819004
7253.26581,0.631132144
7253.45881,0.654662873
7253.74832,0.692579404
7253.94132,0.719767914
7254.13433,0.748631232
7254.32733,0.779309307
7254.61683,0.829072291
7254.80984,0.865001936
7255.09934,0.923531228
7255.29235,0.965976875
7255.58185,1.03544766
7255.77486,1.08607607
7256.06436,1.16937792
7256.25736,1.230421
7256.35387,1.26277042
7256.54687,1.33145682
7256.73987,1.40595617
7256.83638,1.4455914
7257.02938,1.53009648
7257.12588,1.57517207
7257.31888,1.67154195
7257.41539,1.7230915
7257.60839,1.83363344
7257.70489,1.89294545
7257.8979,2.02054948
7257.9944,2.08924572
7258.1874,2.23756826
7258.3804,2.40222495
7258.52516,2.53789724
7258.66991,2.68533468
7258.76641,2.79083579
7258.86291,2.90263282
7259.00767,3.08324703
7259.10417,3.21309607
7259.20067,3.35123509
7259.29717,3.49837158
7259.39367,3.65528852
7259.49018,3.822854
7259.58668,4.00203228
7259.68318,4.19389652
7259.77968,4.39964342
7259.87618,4.62061013
7259.97268,4.85829384
7260.06919,5.11437446
7260.16569,5.39074099
7260.26219,5.68952219
7260.31044,5.84805776
7260.40694,6.18506629
7260.50344,6.55110994
7260.5517,6.7460315
7260.6482,7.16193878
7260.7447,7.61598534
7260.79295,7.85871399
7260.88945,8.37873803
7260.98595,8.9495927
7261.0342,9.25605305
7261.13071,9.91549183
7261.17896,10.2704477
7261.27546,11.0363296
7261.32371,11.4496997
7261.39609,12.1115808
7261.46846,12.8281466
7261.54084,13.6049683
7261.61321,14.4482316
7261.68559,15.3647935
7261.75797,16.3622363
7261.83034,17.4489144
7261.90272,18.6339882
7261.95097,19.4835949
7261.99922,20.3845035
7262.0716,21.8393137
7262.11985,22.8831979
7262.1681,23.9904554
7262.21635,25.164718
7262.2646,26.4096126
7262.31285,27.7286874
7262.3611,29.1253159
7262.40935,30.6025741
7262.48173,32.9752142
7262.54928,35.3638276
7262.60718,37.5458735
7262.68438,40.6434747
7262.76159,43.9392433
7262.83879,47.3986705
7263.05109,57.2048693
7263.12829,60.5622959
7263.18619,62.8684535
7263.22479,64.2668557
7263.2634,65.5300915
7263.302,66.6383913
7263.3406,67.5734054
7263.3792,68.3189068
7263.4178,68.8614585
7263.4564,69.1909991
7263.495,69.3012993
7263.5529,69.0522231
7263.5915,68.6144239
7263.6301,67.9682163
7263.6687,67.1254244
7263.7073,66.1009674
7263.7459,64.9122261
7263.78451,63.5783525
7263.84241,61.3497795
7263.91961,58.0608091
7264.18981,45.6441491
7264.26701,42.2610202
7264.30562,40.6362441
7264.38282,37.5387769
7264.42142,36.0704159
7264.50827,32.9684265
7264.55652,31.3656315
7264.60477,29.8471816
7264.65302,28.4107447
7264.70127,27.0534472
7264.74952,25.7720457
7264.79777,24.5630647
7264.87015,22.8774964
7264.94253,21.3345243
7265.0149,19.9221472
7265.08728,18.6288975
7265.15966,17.4440107
7265.23203,16.3575109
7265.30441,15.3602378
7265.37679,14.4438372
7265.42504,13.8740579
7265.49741,13.0759563
7265.54566,12.5788344
7265.61804,11.8812229
7265.66629,11.4458732
7265.76279,10.6400056
7265.81104,10.2668643
7265.90755,9.5742671
7266.00405,8.94629811
7266.10055,8.37557457
7266.19705,7.8556738
7266.29355,7.38099927
7266.39005,6.94666538
7266.48656,6.54839856
7266.58306,6.18245269
7266.67956,5.84553681
7266.77606,5.53475336
7266.87256,5.24754545
7267.01732,4.85606219
7267.11382,4.6184525
7267.21032,4.39755648
7267.35507,4.09432032
7267.49982,3.82096144
7267.64458,3.57375124
7267.78933,3.34951434
7267.93408,3.14553482
7268.07884,2.95948017
7268.17534,2.84439718
7268.32009,2.6838833
7268.46484,2.53651102
7268.6096,2.40090088
7268.7061,2.31642712
7268.8991,2.16029499
7268.9956,2.08807451
7269.18861,1.95408519
7269.38161,1.83259921
7269.47811,1.77606866
7269.67112,1.67060181
7269.86412,1.5742911
7269.96062,1.52924411
7270.15362,1.44479445
7270.34663,1.36719635
7270.53963,1.29573278
7270.73264,1.22977757
7270.92564,1.16878197
7271.11864,1.11226356
7271.31165,1.05979688
7271.50465,1.01100559
7271.69765,0.965555837
7271.89066,0.923150687
7272.08366,0.883525317
7272.27666,0.846442973
7272.46967,0.811691485
7272.75917,0.763522977
7272.95218,0.73380583
7273.14518,0.705830936
7273.43469,0.666847575
7273.72419,0.631089464
7274.0137,0.598211467
7274.3032,0.56791329
7274.68921,0.531080265
7275.07522,0.497836934
7275.26822,0.482417774
7275.65423,0.453736042
7275.84723,0.440385471
7276.18499,0.418460835
7276.47449,0.401005535
7276.81225,0.382053557
7277.00525,0.371852554
7277.48776,0.348161351
7277.97027,0.326787941
7278.45278,0.307440221
7278.93529,0.289870635
7279.4178,0.273868277
7279.90031,0.259252573
7280.38281,0.245868199
7280.86532,0.233580964
7281.34783,0.222274454
7281.83034,0.211847281
7282.31285,0.202210819
7283.03661,0.189071225
7283.51912,0.181091423
7284.00163,0.173668189
