energy [eV],cross section [b]
1e-05,25.2553451
1.09867509e-05,24.0945416
1.19735017e-05,23.0803673
1.30468017e-05,22.1106381
1.42931998e-05,21.1246039
1.5539598e-05,20.259719
1.64798531e-05,19.6732739
1.75294313e-05,19.0752128
1.91037986e-05,18.2723094
2.08162556e-05,17.5045923
2.21420131e-05,16.9724584
2.34677705e-05,16.4860794
2.4793528e-05,16.0392531
2.62937111e-05,15.5749751
2.79683199e-05,15.101501
3.0480233e-05,14.4658568
3.3212469e-05,13.8580691
3.63853508e-05,13.240062
3.95582326e-05,12.6979865
4.32877089e-05,12.1386671
4.59595579e-05,11.7805449
4.99673314e-05,11.2982251
5.4678158e-05,10.8005622
5.80530601e-05,10.4819176
6.14279623e-05,10.1899075
6.48028644e-05,9.92101704
6.90658166e-05,9.60996311
7.33287687e-05,9.32644426
7.75917209e-05,9.06662393
8.18546731e-05,8.82737455
8.993169e-05,8.42164469
9.8008707e-05,8.06716539
0.000106794169,7.72822075
0.00011699652,7.38357711
0.000127198871,7.08127819
0.000139190943,6.76936285
0.000147782231,6.56964907
0.000160669163,6.30067404
0.00017039078,6.11829244
0.000181242724,5.93229834
0.000192094668,5.7622967
0.000202946613,5.6061197
0.000215226313,5.44384292
0.000235787496,5.20107216
0.000249494951,5.0561783
0.000263202406,4.92275624
0.000289173926,4.69649309
0.000315145446,4.49881082
0.00034339496,4.30979175
0.000376200458,4.11759452
0.000409005957,3.94901164
0.000433753699,3.83470209
0.00046137885,3.71812837
0.000502816577,3.56162687
0.000530441728,3.4676429
0.000565335984,3.35892175
0.000600230239,3.2598248
0.000635124495,3.16901107
0.000692056803,3.03586396
0.000758170961,2.90047811
0.000802247067,2.81967522
0.000846323172,2.7452698
0.000929834184,2.61908974
0.0010133452,2.50884835
0.00110418106,2.40343817
0.00117450477,2.33037437
0.00124482848,2.26359287
0.00135031404,2.17337999
0.00143914227,2.10523787
0.00152797051,2.04312782
0.00161679875,1.98620936
0.00170562698,1.93379735
0.00181782891,1.87316687
0.00193003084,1.8179035
0.00204223276,1.76725944
0.00215443469,1.72062506
0.00236702372,1.64154037
0.00257961275,1.57244541
0.00281084821,1.50637846
0.00307937655,1.43920066
0.00334790489,1.38027667
0.00366353911,1.31947824
0.00388966388,1.2805501
0.00411578865,1.24487585
0.00434191342,1.21202606
0.00462753921,1.17402525
0.004913165,1.13938834
0.00519879079,1.10764662
0.00548441658,1.07841802
0.00602559186,1.02885084
0.00638637538,0.999366977
0.0067471589,0.972280762
0.00738326843,0.929453656
0.00806684509,0.889201351
0.00875042175,0.85376311
0.00961387037,0.814521652
0.0101895028,0.791179808
0.0110529514,0.759648098
0.011780052,0.735830686
0.012870703,0.703963665
0.0135978036,0.68488384
0.0144205665,0.665058819
0.0153389917,0.644841121
0.0162574169,0.626361819
0.0171758421,0.60938527
0.0182151016,0.591745677
0.0199552421,0.565356349
0.0216953827,0.54220937
0.0237877148,0.517814518
0.0260092107,0.495207177
0.0281368427,0.476116028
0.0299877796,0.461188343
0.032764185,0.441215566
0.0355405904,0.423631528
0.0378785709,0.410349501
0.0402165515,0.398243258
0.042554532,0.387148978
0.0448925126,0.376933107
0.0478456943,0.365115385
0.050798876,0.354343843
0.0537520577,0.344472717
0.0585703709,0.330000215
0.0641657653,0.315284541
0.0697611597,0.302377087
0.0763381115,0.289059252
0.0834058419,0.276542352
0.0904735724,0.265522697
0.0964252308,0.257199218
0.102376889,0.249612724
0.111304377,0.239395531
0.118629247,0.231889099
0.127327329,0.223831228
0.141182465,0.21256929
0.149099118,0.206851798
0.158595027,0.200567107
0.172838891,0.192130512
0.188332101,0.184064519
0.206324003,0.175864005
0.224315905,0.16867219
0.24546399,0.161252996
0.260614773,0.156503529
0.283340949,0.150108303
0.310053804,0.143511646
0.329191267,0.13928923
0.348328731,0.135420816
0.367466194,0.131859718
0.391639366,0.127741659
0.415812539,0.1239897
0.439985711,0.120552877
0.464158883,0.117389647
0.509959801,0.112029166
0.555760719,0.107350658
0.60557889,0.102882478
0.663431567,0.0983457991
0.721284244,0.0943733774
0.789285574,0.0902829902
0.83800268,0.0876694451
0.911078337,0.0841577184
0.966204995,0.0817829088
1.02774121,0.0793673495
1.12004552,0.0761363419
1.18158173,0.0742038064
1.25931019,0.0719769036
1.33703864,0.0699565527
1.41476709,0.0681142859
1.53982866,0.0654669222
1.63449489,0.0636833131
1.7326763,0.0620034217
1.88522122,0.0596844014
2.06232886,0.0573597404
2.2394365,0.0553563713
2.45961074,0.0532279556
2.61625982,0.0519160726
2.7729089,0.0507466227
3.00788252,0.049221077
3.20575123,0.0481188242
3.40361994,0.0471598205
3.60148865,0.0463265819
3.87776829,0.0453472889
4.11300106,0.0446624295
4.45604843,0.0438782129
4.9132874,0.0431778085
5.2505224,0.0428841417
5.4735658,0.0427850907
5.92386278,0.0428018515
6.2138192,0.0429598318
6.5887828,0.0433305944
7.04602177,0.04403599
7.28021734,0.0445067145
7.65698808,0.0454247589
8.1500866,0.0469418307
8.37313,0.0477534862
8.8192168,0.0496319971
9.0422602,0.0507088016
9.3768253,0.0525127546
9.67179864,0.0543082264
9.9344338,0.0560850595
10.1574772,0.0577383546
10.4920423,0.0604932941
10.7150857,0.0625327175
11.0496508,0.0659352476
11.2726942,0.0684594454
11.6072593,0.0726840933
11.8303027,0.0758305496
11.9418244,0.0775139625
12.1648678,0.0811226622
12.3153188,0.0837548385
12.5124093,0.0874698238
12.7782372,0.0930168435
13.029161,0.0988997902
13.1964435,0.103220494
13.3637261,0.107900162
13.5310086,0.112978486
13.6982912,0.118500903
13.8655737,0.124519625
14.0049759,0.129957528
14.1164976,0.1346126
14.2837801,0.14215699
14.3953018,0.147598973
14.5625844,0.156454646
14.6741061,0.162869715
14.8413886,0.173356823
14.9529103,0.180990231
15.1201929,0.193533908
15.2874754,0.207575218
15.4314166,0.221044241
15.5105188,0.229063345
15.6220405,0.24119806
15.7614426,0.257890946
15.8450839,0.26881875
15.9566056,0.284586972
16.0123665,0.293033428
16.1238881,0.311174529
16.179649,0.320924787
16.2911707,0.341941885
16.3469316,0.35327992
16.4584532,0.377817454
16.5142141,0.391109286
16.5978554,0.412472854
16.6536162,0.427752244
16.7372575,0.452393747
16.7930184,0.470079566
16.8766596,0.498708871
16.9324205,0.519336779
17.0160617,0.552867434
17.0718226,0.577131296
17.1554639,0.616754988
17.2391052,0.660761362
17.3227464,0.70982433
17.4063877,0.764752784
17.4342681,0.78452905
17.490029,0.826524419
17.5179094,0.848834299
17.5736702,0.896329878
17.6015507,0.921627142
17.6573115,0.975630984
17.7130724,1.03465062
17.754893,1.08259007
17.7967137,1.13402029
17.8245941,1.17041674
17.8803549,1.24879157
17.9082354,1.29102805
17.9639962,1.3823316
17.9918766,1.43173192
18.0476375,1.53898186
18.0894581,1.62768181
18.1173385,1.69122044
18.145219,1.75861723
18.1870396,1.86765467
18.21492,1.94617016
18.2428005,2.02982002
18.2846211,2.16593911
18.3125015,2.26454795
18.3403819,2.37014196
18.3822026,2.54313363
18.410083,2.66933949
18.4379634,2.80529625
18.4519036,2.87724867
18.4797841,3.02981086
18.5076645,3.1949758
18.5355449,3.3741726
18.5634253,3.56903883
18.5913058,3.78145799
18.6191862,4.01360528
18.6470666,4.26800337
18.674947,4.54759122
18.7028275,4.85580916
18.7307079,5.19670503
18.7558003,5.53539084
18.7836807,5.95231475
18.800409,6.22562539
18.8115611,6.4184852
18.8227133,6.62049629
18.8450176,7.05437179
18.8561698,7.28756042
18.8784741,7.79017737
18.8896263,8.06129684
18.9119307,8.64796073
18.9286589,9.13118544
18.9453872,9.65620507
18.9621154,10.2279723
18.9732676,10.6379041
18.9844198,11.0730354
19.001148,11.7776425
19.0123002,12.2854703
19.0234523,12.8269001
19.0401806,13.708751
19.0513328,14.3481737
19.0624849,15.0333943
19.0792132,16.1570052
19.0903654,16.9774745
19.1015175,17.861969
19.1126697,18.8172913
19.1238219,19.8511662
19.1349741,20.9723935
19.1461262,22.1910314
19.1572784,23.5186168
19.1684306,24.9684318
19.1795827,26.5558273
19.1907349,28.2986179
19.2018871,30.2175661
19.2074632,31.2505384
19.2186153,33.48061
19.2297675,35.9559367
19.2353436,37.2968258
19.2437077,39.4517678
19.2492838,40.9926734
19.2576479,43.4768597
19.263224,45.258955
19.2715881,48.1418226
19.2771642,50.2172266
19.2855283,53.5871255
19.2938925,57.3018329
19.3022566,61.4089754
19.3106207,65.964473
19.3189849,71.0342772
19.327349,76.6965305
19.330137,78.7311935
19.3357131,83.0442638
19.3385012,85.3311381
19.3440772,90.1887764
19.3496533,95.4594449
19.3552294,101.189422
19.3580175,104.24282
19.3635935,110.762666
19.3691696,117.887484
19.3747457,125.690494
19.3803218,134.255569
19.3858979,143.678953
19.391474,154.07127
19.39705,165.559831
19.4026261,178.291279
19.4054142,185.174923
19.4082022,192.434562
19.4109903,200.095338
19.4137783,208.184212
19.4165663,216.730071
19.4207484,230.473943
19.4235364,240.302289
19.4277185,256.134641
19.4305066,267.473593
19.4346886,285.764197
19.4374767,298.878981
19.4416587,320.053465
19.4458408,343.183967
19.4500229,368.449985
19.4542049,396.034566
19.456993,415.801528
19.459781,436.729477
19.4639631,470.396911
19.4667511,494.412598
19.4695392,519.713867
19.474,562.883422
19.4795761,621.357211
19.4851522,684.277543
19.5007652,870.123924
19.5052261,919.313237
19.5085717,952.626573
19.5108022,972.555789
19.5130326,990.307126
19.515263,1005.59403
19.5174935,1018.15657
19.5197239,1027.77179
19.5219543,1034.26316
19.5253,1037.89196
19.5286457,1034.0748
19.5308761,1027.45997
19.5331065,1017.72437
19.535337,1005.04563
19.5375674,989.647671
19.5397978,971.791231
19.5420283,951.763512
19.5453739,918.315788
19.5498348,868.973463
19.5654478,682.813573
19.5699087,632.112885
19.5721391,607.766102
19.5766,561.356005
19.5788304,539.357223
19.5810609,518.185029
19.5838489,492.887855
19.5866369,468.879415
19.589425,446.135809
19.592213,424.621899
19.5950011,404.294456
19.5977891,385.104735
19.6005771,367.000533
19.6047592,341.761198
19.6089413,318.658826
19.6131233,297.513364
19.6173054,278.152804
19.6214875,260.415723
19.6256695,244.152543
19.6298516,229.225938
19.6340337,215.510678
19.6368217,206.983567
19.6410038,195.040093
19.6437918,187.601127
19.6479739,177.162554
19.6507619,170.648618
19.656338,158.591518
19.659126,153.00905
19.6647021,142.647897
19.6702782,133.254307
19.6758543,124.717694
19.6814304,116.94186
19.6870065,109.842986
19.6925826,103.347905
19.6981586,97.3926207
19.7037347,91.9210375
19.7065228,89.3509948
19.7120988,84.5144437
19.7176749,80.0492001
19.723251,75.9192742
19.7260391,73.969952
19.7316151,70.2843985
19.7371912,66.8610887
19.7455554,62.1666321
19.7539195,57.9398127
19.7622836,54.1216984
19.7706477,50.662178
19.7790119,47.5184554
19.787376,44.6538274
19.7929521,42.883337
19.8013162,40.4157814
19.8068923,38.8854753
19.8152564,36.7457491
19.8208325,35.4145738
19.8319847,32.9577156
19.8375608,31.8228716
19.8487129,29.7201941
19.8598651,27.8169571
19.8654412,26.9324141
19.8765934,25.2840544
19.8877455,23.7810244
19.9016857,22.0817486
19.9156259,20.5566864
19.9267781,19.4465784
19.9379303,18.423253
19.9490825,17.4779523
19.9602346,16.6029895
19.9713868,15.7915964
19.982539,15.0377955
19.9936911,14.3362923
20.0104194,13.3719505
20.0215716,12.7817236
20.0327237,12.2294442
20.049452,11.4653332
20.0661802,10.7701732
20.0829085,10.1359455
20.0996368,9.55576019
20.116365,9.02367108
20.1330933,8.53452533
20.1498215,8.08384007
20.1721259,7.5360591
20.183278,7.28267714
20.2055824,6.81255394
20.2167345,6.59426889
20.2278867,6.38623888
20.244615,6.09205642
20.2585552,5.86205574
20.2752834,5.60273271
20.2947997,5.32122238
20.3059519,5.16971963
20.3338323,4.81792578
20.3617128,4.50062816
20.3895932,4.21347229
20.4174736,3.95276845
20.445354,3.71537367
20.4732344,3.49859751
20.5011149,3.30012612
20.5150551,3.20711925
20.5429355,3.032442
20.5708159,2.87155671
20.5986964,2.72305275
20.6126366,2.65305168
20.6544572,2.45839856
20.6962779,2.28425724
20.7380985,2.1278516
20.7799191,1.9868591
20.8217398,1.85932475
20.8496202,1.78095065
20.8914408,1.67229228
20.9332615,1.57320484
20.9750821,1.48259978
21.0029625,1.42644005
21.0447832,1.34795025
21.0726636,1.29913773
21.1144842,1.23070208
21.1423647,1.18801278
21.1981255,1.10898103
21.2260059,1.07236374
21.2817668,1.00432005
21.3375276,0.94249638
21.365408,0.913683679
21.4211689,0.859849099
21.4769298,0.810592761
21.5326906,0.765411801
21.5884515,0.723870435
21.6442123,0.68558951
21.6999731,0.650237903
21.755734,0.617525411
21.8114949,0.587196835
21.8672557,0.559027036
21.950897,0.520390452
22.0066578,0.496794204
22.0624187,0.474751183
22.14606,0.44431241
22.2297012,0.416681613
22.3133425,0.391525381
22.3969838,0.368558256
22.4806251,0.347534703
22.5642663,0.328242593
22.6479076,0.310497905
22.7594293,0.288971389
22.8151901,0.279029917
22.9267119,0.260612297
22.9824727,0.252073409
23.0939944,0.236196838
23.1497552,0.228810051
23.2055161,0.22176128
23.2891574,0.211778179
23.4285595,0.196564299
23.5400812,0.185533936
23.5958421,0.180360933
23.7073637,0.170638654
23.8188855,0.161676296
23.8746463,0.157455766
23.986168,0.149492653
24.1534506,0.138628331
24.2649722,0.132027008
24.376494,0.12588407
24.4794221,0.120585623
24.5737567,0.116016929
24.7110591,0.109816264
24.8225808,0.105137819
24.9341025,0.100751754
25.0456242,0.0966344395
25.1850263,0.0918334777
25.3523088,0.0865309164
25.5195914,0.0816760491
25.6032327,0.0794010876
25.7705152,0.0751288792
25.9377978,0.0711947757
26.021439,0.0693436081
26.1887216,0.0658536195
26.3560041,0.0626236292
26.5511671,0.0591509107
26.7742105,0.0555300007
26.8857322,0.0538453374
27.1087756,0.0507029217
27.2202973,0.0492363717
27.4433407,0.0464929123
27.5548624,0.0452089526
27.7779058,0.0428007315
27.8894275,0.0416707678
28.1124709,0.0395462668
28.2239926,0.0385470782
28.5585577,0.0357768633
28.8931228,0.0333099174
29.2276879,0.031104637
29.4507313,0.0297624404
29.7852964,0.0279189498
30.0083398,0.026791942
30.3429049,0.0252376603
30.5659483,0.0242837598
30.7889917,0.0233896276
31.0995155,0.0222357099
31.3466002,0.0213865185
31.5584914,0.0207028569
31.8874804,0.0197160907
32.121676,0.0190645403
32.4618172,0.0181867293
32.6848606,0.017651668
32.974817,0.0170001478
33.2647734,0.0163946679
33.5770342,0.015789899
33.8000776,0.0153857251
34.2517405,0.0146322247
34.7089795,0.0139497588
35.1717945,0.0133324235
35.6401857,0.0127750986
36.1085768,0.0122789259
36.5769679,0.0118382054
37.0899677,0.0114134503
37.562541,0.0110713396
38.1438478,0.0107100104
38.5313857,0.0105031893
38.9189236,0.0103221422
39.2828419,0.0101746807
39.9823349,0.0099501507
40.3320815,0.00986610637
40.681828,0.00980052531
41.1000344,0.00974619515
41.4736321,0.00971987425
41.9420232,0.00971680479
42.4104143,0.00974775423
42.8788055,0.00981391368
43.57024,0.00997960931
44.2505224,0.0102285603
44.6296962,0.0104079706
45.075783,0.0106600043
45.3657394,0.0108495137
45.8118262,0.0111843356
46.0460218,0.0113828518
46.4921086,0.0118087667
46.9270432,0.0122910284
47.1500866,0.0125669237
47.5961734,0.0131839205
47.9307385,0.0137103598
48.2653036,0.0142987911
48.5998687,0.0149571388
48.9344338,0.0156947571
49.1574772,0.0162359384
49.3805206,0.0168210353
49.7230417,0.0178150441
50.0496508,0.0188855016
50.3842159,0.0201263831
50.6072593,0.021046794
50.8303027,0.0220517547
50.9418244,0.0225890261
51.1648678,0.0237401487
51.3879112,0.0250040002
51.6109546,0.0263951516
51.7782371,0.027532197
52.029161,0.0294082403
52.1964435,0.0307866701
52.4473674,0.0330742777
52.6146499,0.0347655046
52.7819324,0.0366078578
52.949215,0.0386196069
53.0607367,0.0400651832
53.2280193,0.0424078775
53.3953018,0.0449842425
53.5625843,0.0478261243
53.7298669,0.0509710057
53.8971495,0.0544632476
54.064432,0.0583556621
54.2317146,0.0627115217
54.3989971,0.0676071496
54.454758,0.0693744527
54.5662796,0.0731352902
54.6778013,0.0772271867
54.7893231,0.0816901074
54.8450839,0.0840748629
54.9566056,0.0891832009
55.0681273,0.0947924304
55.179649,0.100970211
55.2911707,0.107796038
55.3469316,0.111480671
55.4584533,0.119460026
55.5420945,0.126038934
55.6257358,0.13319342
55.7093771,0.140992672
55.7930183,0.149516602
55.8766596,0.158857912
55.9603009,0.169124625
56.0439422,0.180443235
56.1275835,0.192962625
56.2112247,0.206859003
56.2669856,0.216990234
56.3227464,0.227897869
56.4063877,0.245896264
56.4621486,0.259125879
56.5179094,0.273469193
56.5457898,0.281098
56.6015507,0.297359054
56.6294311,0.306030921
56.685192,0.324567741
56.7130724,0.334481995
56.7688332,0.355740252
56.7967137,0.367146217
56.8524745,0.391686286
56.8803549,0.404899123
56.9361158,0.433433413
56.9918766,0.465124453
57.0197571,0.482301394
57.0476375,0.500455926
57.0894581,0.529688212
57.1173385,0.550634261
57.145219,0.572857326
57.1730994,0.596463403
57.2009798,0.621569712
57.2288602,0.648306162
57.2567407,0.676817028
57.2985613,0.723266663
57.3264417,0.756957518
57.3543222,0.793072051
57.3822026,0.831848442
57.410083,0.873554852
57.4379634,0.918494059
57.4658438,0.967008964
57.4937243,1.01948914
57.5216047,1.07637865
57.5494851,1.13818546
57.5773656,1.20549278
57.605246,1.27897285
57.6331264,1.3594037
57.6610068,1.44768979
57.674947,1.49510191
57.7028275,1.59720734
57.7307079,1.71016479
57.7502242,1.7965331
57.7669524,1.8758878
57.7836807,1.9606265
57.800409,2.05124676
57.8115611,2.11519985
57.8338655,2.25242436
57.8450176,2.32610285
57.867322,2.48473921
57.8896263,2.6601788
57.9119307,2.85487554
57.9286589,3.01527029
57.9398111,3.12982403
57.9509632,3.25102654
57.9676915,3.44645524
57.9788437,3.58668453
57.9899958,3.7356366
58.0067241,3.97705163
58.0178763,4.15120705
58.0290284,4.33703065
58.0401806,4.5355841
58.0513328,4.74805203
58.0624849,4.97575944
58.0736371,5.22019206
58.0847893,5.48302017
58.0959415,5.76612662
58.1070936,6.07163997
58.1182458,6.40197369
58.129398,6.75987286
58.1405501,7.14846997
58.1517023,7.57135183
58.1572784,7.79691419
58.1684306,8.27914513
58.1795827,8.80718843
58.1851588,9.09020829
58.196311,9.69839888
58.2074632,10.3691436
58.2130392,10.7306598
58.2241914,11.5121793
58.2297675,11.9349939
58.2381316,12.6137346
58.2464958,13.3513127
58.2548599,14.1546268
58.263224,15.0315992
58.2715881,15.9913604
58.2799523,17.0444723
58.2883164,18.2032
58.2966805,19.4818432
58.3050446,20.8971444
58.3134088,22.4687914
58.3189849,23.6147301
58.3245609,24.8483288
58.327349,25.5007409
58.3329251,26.8828653
58.3385012,28.3770547
58.3440772,29.9953273
58.3496533,31.7512868
58.3552294,33.6603667
58.3608055,35.7401149
58.3663816,38.0105279
58.3719577,40.4944417
58.3775337,43.2179884
58.3831098,46.2111305
58.3886859,49.5082815
58.394262,53.149025
58.39705,55.1122286
58.4026261,59.3559506
58.4054142,61.650544
58.4095962,65.3301636
58.4123843,67.9541832
58.4165663,72.1699132
58.4193544,75.1816677
58.4235364,80.0288009
58.4263245,83.4973599
58.4305066,89.0883036
58.4346886,95.1871704
58.4388707,101.845144
58.4430527,109.117238
58.4472348,117.061746
58.4514169,125.739215
58.4542049,131.961609
58.456993,138.554673
58.461175,149.175738
58.4639631,156.765717
58.4667511,164.777084
58.4717696,180.281359
58.4751152,191.391461
58.4784609,203.100619
58.4818065,215.368236
58.4851522,228.127044
58.5007652,290.16442
58.5052261,306.592089
58.5085717,317.721105
58.5108022,324.380889
58.5130326,330.314818
58.515263,335.427217
58.5174935,339.631279
58.5197239,342.852513
58.5219543,345.031906
58.5253,346.263494
58.5275304,345.703357
58.5297609,344.047576
58.5319913,341.327377
58.5342217,337.593136
58.5364522,332.912085
58.5386826,327.365393
58.540913,321.044823
58.5431435,314.049221
58.5464891,302.514506
58.55095,285.724682
58.5632174,236.698084
58.5699087,211.053386
58.5743695,195.060022
58.5788304,180.111117
58.5838489,164.607367
58.588031,152.750313
58.592213,141.82906
58.5950011,135.045819
58.5991831,125.576936
58.6019712,119.709399
58.6047592,114.176789
58.6075473,108.960942
58.6103353,104.043951
58.6131233,99.4083666
58.6159114,95.0373458
58.6186994,90.9147478
58.6214875,87.0251964
58.6242755,83.3541127
58.6270636,79.8877275
58.6298516,76.6130765
58.6326396,73.5179845
58.6354277,70.59104
58.6396097,66.4927352
58.6423978,63.9409655
58.6451858,61.5229524
58.6507619,57.0552042
58.656338,53.0289889
58.659126,51.1647624
58.6647021,47.7045852
58.6674902,46.0980311
58.6730663,43.1081298
58.6758543,41.7161916
58.6814304,39.1189781
58.6842184,37.9067192
58.6897945,35.6391268
58.6925826,34.578093
58.6981586,32.5886481
58.7009467,31.6555625
58.7065228,29.9020587
58.7120988,28.2861326
58.7148869,27.5254473
58.720463,26.0908956
