energy [eV],cross section [b]
1e-05,63.8724037
1.05912419e-05,62.0640078
1.14781047e-05,59.6181051
1.20693465e-05,58.1395116
1.27305018e-05,56.6096534
1.38271047e-05,54.3184826
1.5289242e-05,51.6559408
1.6645188e-05,49.507261
1.8001134e-05,47.6061782
1.94639723e-05,45.7822897
2.11405951e-05,43.9293363
2.28172179e-05,42.2845681
2.40671384e-05,41.17191
2.54492308e-05,40.0383259
2.75223695e-05,38.5008509
2.97589383e-05,37.0258058
3.14678911e-05,36.0063761
3.48857967e-05,34.1970707
3.67968304e-05,33.2972235
3.89099449e-05,32.3804527
4.20796168e-05,31.1370405
4.41927314e-05,30.3834996
4.68055907e-05,29.5232626
5.07248796e-05,28.3597695
5.46441685e-05,27.3238123
5.94903565e-05,26.1872511
6.27211486e-05,25.5038763
6.75673366e-05,24.5722423
7.15622004e-05,23.8765371
7.75544961e-05,22.9355778
8.35467918e-05,22.0977614
8.84864279e-05,21.4721153
9.3426064e-05,20.8967684
9.83657001e-05,20.3653232
0.000103305336,19.8724661
0.00010941318,19.309824
0.000115521024,18.7924158
0.000121628868,18.3144883
0.000131512877,17.612823
0.00014284137,16.8999761
0.000154169864,16.2672198
0.000167284459,15.6165561
0.000181292105,15.0011171
0.000195299751,14.4531392
0.000206846689,14.0439323
0.000218393628,13.6676239
0.000235714037,13.1558907
0.000248626382,12.8097117
0.000262904135,12.4570221
0.000291459639,11.8310611
0.000307425713,11.5197431
0.000325080107,11.2025701
0.000360388896,10.6396446
0.000391045694,10.2140747
0.000423790095,9.8115437
0.000456534497,9.45313594
0.000497022843,9.0599224
0.000537511189,8.71201967
0.000581191323,8.37824366
0.000614567128,8.14756516
0.000647942934,7.934948
0.000698006642,7.64509038
0.000739275717,7.42863688
0.000801179329,7.13587782
0.000842448404,6.95889952
0.00088859748,6.77578513
0.000965141095,6.50154638
0.00106719925,6.18285678
0.00116184518,5.92567316
0.00128803975,5.62790856
0.00139760799,5.4027994
0.00151463737,5.18987681
0.00163166676,5.0002936
0.00172813773,4.85872078
0.0018246087,4.72852977
0.00196931515,4.55148595
0.00213683668,4.36943159
0.00225612272,4.25235096
0.0024946948,4.04390973
0.00271594,3.87569687
0.0030109336,3.68094163
0.00317587166,3.58408122
0.00335825097,3.48539909
0.00363181994,3.35155687
0.00392695497,3.22314927
0.00426522211,3.09269529
0.00460348926,2.97689811
0.00485566704,2.8985632
0.00513451119,2.81875497
0.00555277741,2.71051131
0.0060040165,2.60666281
0.00634880638,2.5348912
0.00703838614,2.40750924
0.00742394686,2.34415649
0.00785027843,2.27961217
0.00870294156,2.16505735
0.00917968614,2.10808408
0.00970684373,2.05003922
0.0104975801,1.9713131
0.011350652,1.89578351
0.012328395,1.8190501
0.013306138,1.75093775
0.0144380363,1.68089756
0.0152440203,1.63585404
0.0164529963,1.57460023
0.0178525849,1.51161266
0.0188491815,1.47110472
0.0208423747,1.39898728
0.0230711874,1.32968764
0.0253,1.26975983
0.0280571095,1.20574916
0.0303426905,1.15944075
0.0328084489,1.11501242
0.0356345624,1.06987576
0.0384606758,1.02981004
0.0417323671,0.98861007
0.0440620204,0.962113843
0.0475565005,0.926081946
0.0516019361,0.889029936
0.0544825449,0.86520127
0.0602437626,0.822778094
0.063805626,0.799475036
0.0673674895,0.778045234
0.0744912164,0.739892755
0.0810975652,0.709103006
0.0899060304,0.673454222
0.0975539659,0.646503259
0.105722695,0.621010795
0.113891424,0.598312188
0.12399203,0.573408679
0.130725768,0.558434733
0.140826375,0.53802055
0.14915262,0.522775736
0.161641987,0.502156187
0.169968232,0.48969096
0.179279041,0.476793264
0.189574416,0.46365268
0.199869791,0.451540656
0.210165165,0.440329627
0.221677951,0.428729594
0.240773247,0.411356343
0.266233642,0.391166065
0.289844913,0.374871538
0.313456184,0.360453916
0.339029207,0.346569573
0.368181429,0.332540892
0.397333651,0.320085226
0.419084339,0.311650901
0.443150902,0.303051686
0.479250746,0.291387988
0.503317309,0.284319112
0.533075535,0.276248983
0.562833762,0.268827318
0.592591988,0.261971665
0.622350215,0.255613545
0.659146165,0.248354858
0.695942115,0.241679456
0.732738065,0.235513185
0.805441508,0.224595848
0.868893326,0.216209833
0.951526305,0.206572576
1.00778452,0.200700973
1.09217185,0.192759565
1.17655918,0.185688932
1.26497269,0.179054115
1.3533862,0.173081238
1.42945525,0.168392924
1.58383343,0.159940821
1.66984798,0.155750245
1.79886981,0.150039536
1.95514172,0.143898619
2.04486003,0.140697833
2.22429666,0.134892596
2.44146525,0.128751651
2.6334792,0.123977709
2.88392134,0.118498844
3.11332558,0.114090002
3.30496253,0.11077954
3.5295443,0.107267869
3.7855629,0.103680899
4.0415815,0.100475363
4.31533202,0.0974135424
4.681628,0.0938314889
4.9376466,0.091640669
5.1936652,0.0896875788
5.4496838,0.0879632692
5.7057024,0.0864664941
5.961721,0.0852047894
6.2177396,0.0841966226
6.42920981,0.0835780535
6.6017675,0.0832378135
6.8577861,0.0830575211
6.9857954,0.0831413777
7.17780935,0.0835367592
7.3698233,0.0843355263
7.4978326,0.0851531478
7.6258419,0.0862582781
7.7538512,0.087720726
7.8818605,0.0896347011
8.0098698,0.0921296297
8.10587677,0.0944886213
8.20188375,0.0973789109
8.29789072,0.100938869
8.36189537,0.103774065
8.3938977,0.105355734
8.45790235,0.108900058
8.48990467,0.110887784
8.55390932,0.11536933
8.60191281,0.119245405
8.6499163,0.12364606
8.69791979,0.128664184
8.72992211,0.132408069
8.7779256,0.138722909
8.80992793,0.14346999
8.84193025,0.148714579
8.87393257,0.154526144
8.88993374,0.157669609
8.91873583,0.163773848
8.95073815,0.171310629
8.98274048,0.1797628
9.00834234,0.187283876
9.02114327,0.191328103
9.04674513,0.200048392
9.05954606,0.204753567
9.08514792,0.214936526
9.09794885,0.220451823
9.12355071,0.232437103
9.13635164,0.238956069
9.1619535,0.253187443
9.17475443,0.260964754
9.20035629,0.278030689
9.21955768,0.292326983
9.23875908,0.308100577
9.25796047,0.325559538
9.27716187,0.344949654
9.29636327,0.366562904
9.31556466,0.390748197
9.33476605,0.417925137
9.35396745,0.448601783
9.36036791,0.459708393
9.37316884,0.483397803
9.38596977,0.509252878
9.39877071,0.537542368
9.40517117,0.552695429
9.4179721,0.585235773
9.43077303,0.621087221
9.44357396,0.660707962
9.44997443,0.682096697
9.46277535,0.728412342
9.47557628,0.780036692
9.48517698,0.822731429
9.49157745,0.853310154
9.49797791,0.885738049
9.50437838,0.92016446
9.51077884,0.956753832
9.51717931,0.995687543
9.52357977,1.03716599
9.52998024,1.08141096
9.5363807,1.12866841
9.54278117,1.17921155
9.54918163,1.23334448
9.5555821,1.29140636
9.56198256,1.3537762
9.56838303,1.4208784
9.57478349,1.49318924
9.58118396,1.57124433
9.58438419,1.6126117
9.59078466,1.70043907
9.59718512,1.79567017
9.60038535,1.84631484
9.60678582,1.95422721
9.61318628,2.0718134
9.61638652,2.13458294
9.62278698,2.268858
9.62918744,2.41595575
9.63238768,2.49480094
9.63878814,2.66418405
9.64198838,2.75521014
9.64838884,2.95128752
9.65158907,3.05694148
9.65798954,3.28515611
9.66278989,3.47259165
9.66759024,3.67554609
9.67239058,3.89560304
9.67559082,4.05266986
9.67879105,4.21868317
9.6835914,4.48581822
9.68679163,4.67694781
9.68999186,4.87933713
9.69479221,5.20571022
9.69799244,5.43967893
9.70119268,5.68777217
9.70599302,6.08841843
9.70919326,6.37593323
9.71239349,6.68095498
9.71559372,7.00451429
9.71879395,7.34764961
9.72199419,7.71138904
9.72519442,8.09672643
9.72839465,8.50459062
9.733195,9.16038865
9.73799535,9.87076818
9.74311572,10.6895495
9.74823609,11.5699183
9.75335647,12.5069345
9.75847684,13.4908667
9.77255786,16.2825998
9.77767823,17.2397003
9.78151851,17.8977355
9.7840787,18.2971128
9.78663888,18.6582278
9.78919907,18.9754502
9.79175926,19.2435497
9.79431944,19.4578961
9.79687963,19.6146494
9.79943981,19.7109263
9.80212801,19.7449806
9.80456019,19.7160398
9.80712037,19.6248275
9.80968056,19.4730425
9.81224074,19.2635237
9.81480093,19.0000709
9.81736112,18.6872795
9.8199213,18.3303505
9.82248149,17.9348918
9.82632177,17.2821985
9.83144214,16.3311816
9.84552316,13.5503203
9.85320372,12.0941615
9.85832409,11.1855961
9.86344446,10.3360869
9.86920488,9.45476996
9.87400523,8.78056022
9.87880558,8.15941253
9.88360593,7.58873876
9.88840628,7.06540389
9.89160651,6.7411397
9.89640686,6.28911329
9.89960709,6.00919116
9.90280732,5.74525513
9.90600756,5.49635073
9.90920779,5.26156302
9.91240802,5.0400201
9.91560825,4.83089512
9.91880849,4.63340692
9.92200872,4.44681986
9.92520895,4.27044295
9.92840918,4.10362842
9.93160942,3.94577006
9.93480965,3.79630128
9.93800988,3.65469308
9.94281023,3.45594892
9.94921069,3.21413631
9.95561116,2.9959054
9.96201162,2.79847576
9.96841209,2.61943324
9.97481255,2.45667997
9.98121302,2.30839059
9.98441325,2.23916448
9.99081372,2.10965237
9.99401395,2.04904206
10.0004144,1.93537887
10.0036146,1.88205998
10.0100151,1.78184399
10.0132153,1.73472764
10.0196158,1.64597943
10.022816,1.60416592
10.0324167,1.48798805
10.0388172,1.41753111
10.0484179,1.32106958
10.0548184,1.26227121
10.0644191,1.18138498
10.0708195,1.13185133
10.0804202,1.0634119
10.0868207,1.02132272
10.0964214,0.962936623
10.1028219,0.926890901
10.1124226,0.876705245
10.118823,0.845612207
10.1284237,0.802176667
10.1348242,0.775178001
10.1476251,0.725396447
10.160426,0.680614059
10.173227,0.640188352
10.1860279,0.603575908
10.1988288,0.570314763
10.2116298,0.540010313
10.2244307,0.512323951
10.2372316,0.486963866
10.2500326,0.463677549
10.2628335,0.442245643
10.2756344,0.422476893
10.2884353,0.40420395
10.3076367,0.379282658
10.3204377,0.364144135
10.3332386,0.350058656
10.35244,0.330699075
10.3652409,0.318851386
10.3780418,0.307765914
10.3972432,0.292428495
10.4164446,0.27847404
10.4420465,0.261743164
10.4676484,0.246864147
10.4804493,0.24003454
10.5060512,0.227452011
10.5188521,0.221649276
10.5444539,0.210911932
10.5700558,0.20120737
10.5956577,0.192406397
10.6084586,0.188309836
10.6340604,0.180663868
10.6532618,0.175366043
10.6852642,0.167274304
10.7140663,0.160690766
10.7300674,0.157288598
10.7620698,0.15097457
10.7940721,0.145245839
10.8420756,0.137597371
10.8740779,0.133042917
10.9220814,0.126907275
10.9700849,0.121488504
11.0180883,0.116676852
11.082093,0.11105343
11.1140953,0.108532919
11.1781,0.103986743
11.2101023,0.101931884
11.274107,0.0981972431
11.3701139,0.0933853093
11.4661209,0.0893346255
11.5621279,0.085885844
11.6581348,0.0829194754
11.7861442,0.0795604941
11.8501488,0.078090545
11.9781581,0.075491243
12.1061674,0.0732660524
12.2341767,0.0713403665
12.362186,0.0696576447
12.4901953,0.0681744073
12.6182046,0.0668567799
12.7462139,0.0656780616
13.0022325,0.0636564553
13.1302418,0.0627826124
13.3862604,0.0612517577
13.642279,0.0599558709
14.0263069,0.0583540894
14.406,0.0570906623
14.691966,0.0563162687
15.0289801,0.055583736
15.326971,0.055099248
15.707974,0.0547273246
15.961976,0.0546649295
16.215978,0.0547935251
16.46998,0.055174898
16.6604815,0.055685267
16.850983,0.0564589846
17.0414845,0.0575957933
17.1684855,0.0586291674
17.2827864,0.0598106285
17.358987,0.0607646076
17.4351876,0.0618818009
17.485988,0.0627333981
17.5621886,0.0642010953
17.612989,0.0653280121
17.6637894,0.0665946465
17.7145898,0.0680229416
17.7653902,0.0696393309
17.8161906,0.0714758815
17.866991,0.0735717908
17.9177914,0.0759753648
17.9685918,0.0787466642
18.0193922,0.081961087
18.0447924,0.0837633986
18.0955928,0.0878299786
18.1336931,0.0913537364
18.1717934,0.0953647076
18.2098937,0.0999542727
18.247994,0.105236057
18.2860943,0.111352673
18.3114945,0.115981583
18.3241946,0.118484949
18.3495948,0.123915935
18.3622949,0.126864698
18.3813451,0.131613037
18.4003952,0.136792683
18.4130953,0.140511034
18.4384955,0.148664238
18.4575457,0.155487075
18.4765958,0.163006433
18.495646,0.171317744
18.5083461,0.177353082
18.5210462,0.183827643
18.5400963,0.194457073
18.5591465,0.206336429
18.5718466,0.215046027
18.583285,0.223495705
18.5908967,0.229464414
18.6035968,0.240094084
18.6099469,0.245747537
18.622647,0.257794808
18.6353471,0.270923483
18.6480472,0.285260465
18.6543972,0.292926587
18.6670973,0.309354231
18.6797974,0.327392883
18.6924975,0.347246415
18.6988476,0.357925686
18.7115476,0.380951876
18.7242478,0.40644708
18.7369478,0.434745035
18.749648,0.466230302
18.755998,0.483304029
18.762348,0.50134553
18.7686981,0.520420455
18.7750482,0.540599023
18.7813982,0.561956232
18.7909233,0.596378288
18.7972733,0.621043061
18.8036234,0.647188731
18.8099734,0.674913188
18.8194985,0.719686187
18.8258486,0.751816987
18.8321986,0.785904598
18.8385486,0.8220642
18.8480737,0.880442193
18.8575988,0.944126968
18.8671239,1.01347402
18.876649,1.0887788
18.888079,1.18726774
18.8982391,1.28225717
18.9083992,1.38391102
18.9236393,1.54697152
18.9515795,1.85896733
18.9617396,1.96592856
18.9693597,2.03946727
18.9744397,2.0840996
18.9795198,2.12445593
18.9845998,2.15990713
18.9896798,2.18986875
18.9947599,2.21382339
18.9998399,2.23134193
19.00492,2.24210216
19.010508,2.24589694
19.01508,2.24267583
19.0201601,2.23248367
19.0252401,2.21552218
19.0303202,2.19210849
19.0354002,2.16266712
19.0404802,2.12771149
19.0455603,2.08782271
19.0506403,2.04362732
19.0582604,1.97068272
19.0684205,1.86439474
19.0963607,1.55358018
19.1116008,1.39081533
19.1217609,1.28925464
19.1268409,1.24091746
19.137001,1.14940982
19.143351,1.09577101
19.1497011,1.04485273
19.1592262,0.973462439
19.1687512,0.907818054
19.1782763,0.847585704
19.1878014,0.792392701
19.1973265,0.741852542
19.2068516,0.695581839
19.2132016,0.666923429
19.2227267,0.626957723
19.2290767,0.602184659
19.2354268,0.578799641
19.2417768,0.556715369
19.2513019,0.525849378
19.257652,0.506668142
19.270352,0.471343533
19.2830522,0.439653996
19.2894022,0.425031904
19.3021023,0.397984545
19.3148024,0.373573353
19.3275025,0.351487536
19.3402026,0.331457242
19.3529027,0.313247969
19.3656028,0.296655671
19.3783029,0.281502521
19.391003,0.267633254
19.4037031,0.254912038
19.4164032,0.243219784
19.4291033,0.232451861
19.4481534,0.217834548
19.4608536,0.208997628
19.4735536,0.200806828
19.4926038,0.189602508
19.5053039,0.182778439
19.518004,0.176417463
19.5370542,0.167657428
19.5497542,0.162287144
19.5624544,0.157256346
19.5815045,0.150286985
19.6069047,0.141946645
19.6196048,0.138137987
19.638655,0.132826648
19.6577051,0.127950844
19.6831053,0.122048607
19.7085055,0.116746246
19.7212056,0.114295055
19.7466058,0.109749684
19.772006,0.10563078
19.7974062,0.101886695
19.8355065,0.0968785817
19.8609067,0.0938919291
19.8863069,0.0911508713
19.9244072,0.0874431872
19.9752076,0.0831409017
20.026008,0.0794443091
20.0768084,0.0762439136
20.1276088,0.0734538199
20.1784092,0.0710059034
20.2292096,0.0688455883
20.28001,0.0669287473
20.3308104,0.0652193963
20.3816108,0.0636879597
20.4324112,0.0623099507
20.4832116,0.0610649582
20.5848124,0.0589082068
20.661013,0.0575306223
20.7372136,0.0563200332
20.8515145,0.0547593935
20.9785155,0.0533109129
21.1055165,0.0520959846
21.296018,0.0506041568
21.4865195,0.0494069016
21.677021,0.0484253224
21.804022,0.0478635025
22.058024,0.0469105074
22.312026,0.0461315905
22.566028,0.0454818356
23.074032,0.0444568449
23.582036,0.0436840221
24.344042,0.0428333539
24.852046,0.0424140324
25.36005,0.0420875606
26.376058,0.0416710818
27.392066,0.0415435399
28.4124342,0.0417135226
28.916078,0.0419192424
29.424082,0.0422188901
30.186088,0.0428669297
30.58,0.0433096673
31.02506,0.0439126462
31.56774,0.0448182407
31.83908,0.0453516573
32.38176,0.0466076632
32.6531,0.0473439204
33.19578,0.0490751735
33.46712,0.0500911387
33.73846,0.051224194
34.14547,0.0531775907
34.348975,0.0542855195
34.6542325,0.0561379888
34.95949,0.0582535763
35.2491912,0.0605470771
35.50217,0.0628162504
35.77351,0.0655734195
36.04485,0.0687238097
36.31619,0.0723413429
36.45186,0.0743532736
36.58753,0.0765183356
36.791035,0.0800871857
36.926705,0.0827067099
37.062375,0.0855425312
37.198045,0.088618489
37.333715,0.0919618161
37.469385,0.095603735
37.605055,0.0995801813
37.67289,0.101706584
37.80856,0.106264727
37.94423,0.111274139
38.012065,0.113966682
38.147735,0.119770245
38.283405,0.126197719
38.35124,0.129673495
38.48691,0.137214483
38.62258,0.145643393
38.690415,0.150234763
38.7921675,0.157650608
38.8600025,0.1629812
38.961755,0.17162358
39.02959,0.177860242
39.1313425,0.188014145
39.1991775,0.195373672
39.2670125,0.203257691
39.3348475,0.21171715
39.4026825,0.220809342
39.4705175,0.230598885
39.5383525,0.241158868
39.6061875,0.252572226
39.70794,0.271502482
39.775775,0.285492365
39.84361,0.300730172
39.911445,0.317368825
39.9962387,0.340409558
40.047115,0.355585993
40.0810325,0.366328969
40.1488675,0.389469805
40.2167025,0.415078259
40.25062,0.428918995
40.318455,0.458932224
40.38629,0.492458258
40.4202075,0.510712497
40.4710837,0.540185997
40.5050012,0.561364944
40.5389187,0.583888894
40.5728362,0.60787423
40.6237125,0.646879017
40.65763,0.675115807
40.7085062,0.721246166
40.7424238,0.754801948
40.7933,0.809905477
40.8272175,0.850204995
40.8780937,0.916769045
40.8950525,0.940765013
40.92897,0.991772066
40.9459287,1.01889671
40.9798462,1.07670313
41.0137637,1.13972737
41.0307225,1.1733946
41.06464,1.24549067
41.0815987,1.28412159
41.1155162,1.36711682
41.132475,1.4117366
41.1663925,1.5079421
41.1833513,1.55985451
41.213877,1.6604424
41.2477945,1.78428611
41.2749285,1.8938012
41.295279,1.98280331
41.308846,2.04572358
41.33598,2.18103063
41.363114,2.33041439
41.390248,2.49589347
41.417382,2.67986071
41.430949,2.77964826
41.4512995,2.94021807
41.4648665,3.05519083
41.4784335,3.17709843
41.4920005,3.30650833
41.512351,3.5160784
41.525918,3.6671328
41.5462685,3.91275181
41.5598355,4.09053888
41.580186,4.38093439
41.593753,4.59212158
41.6141035,4.93881516
41.6276705,5.19227201
41.634454,5.32639123
41.648021,5.61071761
41.6548045,5.76149954
41.6683715,6.08188537
41.675155,6.25218895
41.688722,6.6149537
41.6955055,6.8082732
41.7090725,7.22117152
41.715856,7.44181206
41.729423,7.91443933
41.7362065,8.16775121
41.7497735,8.71208785
41.756557,9.00478266
41.770124,9.63593323
41.783691,10.3353432
41.7938663,10.910692
41.8040415,11.5350042
41.810825,11.9811659
41.8176085,12.4534452
41.8277837,13.2153693
41.8345672,13.7623495
41.8413507,14.3435489
41.8481343,14.9618311
41.8549177,15.6203597
41.8617012,16.3226358
41.8684848,17.0725409
41.8752682,17.8743865
41.8820518,18.7329709
41.8888352,19.6536445
41.8956187,20.6423856
41.9024022,21.7058879
41.9091857,22.8516617
41.9159693,24.0881519
41.919361,24.7433434
41.9261445,26.1341294
41.932928,27.6417886
41.9363197,28.4434283
41.9431033,30.1512259
41.9498867,32.0116636
41.9532785,33.0046158
41.960062,35.1283198
41.9668455,37.4542535
41.9702372,38.7007363
41.9770207,41.3780504
41.9804125,42.8165647
41.987196,45.9146466
41.9905878,47.5836961
41.9973713,51.1881775
42.0024589,54.1479168
42.0075465,57.3520826
42.0126341,60.8255673
42.0160259,63.3043731
42.0194176,65.924017
42.0245052,70.1386095
42.027897,73.1535429
42.0312888,76.3456414
42.0363764,81.4922965
42.0397681,85.1811374
42.0431599,89.0920913
42.0482475,95.4066973
42.0516392,99.9373597
42.055031,104.743133
42.0584227,109.840147
42.0618145,115.244639
42.0652063,120.97267
42.068598,127.039744
42.0719898,133.460327
42.0770774,143.781403
42.082165,154.95812
42.0875918,167.836055
42.0930186,181.677445
42.0970887,192.645903
42.1038722,211.859329
42.1187959,255.663449
42.1242227,270.657216
42.1282928,280.954303
42.1310062,287.197131
42.1337196,292.835499
42.136433,297.781092
42.1391464,301.951952
42.1418598,305.275616
42.1445732,307.692095
42.1472866,309.156491
42.15,309.641036
42.1527134,309.136393
42.1554268,307.652092
42.1581402,305.21609
42.1608536,301.873458
42.163567,297.684345
42.1662804,292.721353
42.1689938,287.066553
42.1717072,280.808348
42.1757773,270.490309
42.1812041,255.472699
42.1961278,211.626026
42.2015546,196.161749
42.2069814,181.430571
42.2124082,167.586393
42.217835,154.707688
42.2229226,143.531709
42.2280102,133.212481
42.2330979,123.717756
42.2381855,115.002871
42.2415772,109.600904
42.244969,104.506589
42.2483608,99.7036518
42.2517525,95.1759322
42.2551443,90.9075983
42.258536,86.8833006
42.2619277,83.0882796
42.2653195,79.5084355
42.2687112,76.1303707
42.272103,72.9414082
42.2754948,69.929595
42.2788865,67.0836919
42.2822782,64.3931553
42.2873659,60.6272411
42.2907576,58.2833195
42.2941494,56.062944
42.299237,52.9471769
42.3060205,49.1570311
42.3094122,47.4037587
42.3161957,44.1525119
42.3195875,42.6443617
