energy [eV],cross section [b]
1e-05,257.004799
1.05889167e-05,249.755758
1.14722919e-05,239.947511
1.27194899e-05,227.880197
1.34471358e-05,221.629003
1.41747818e-05,215.865557
1.57157782e-05,205.009371
1.70643607e-05,196.741848
1.88624709e-05,187.129648
2.05287346e-05,179.374592
2.21949983e-05,172.510121
2.39921008e-05,165.923589
2.53646208e-05,161.372002
2.67371408e-05,157.175552
2.87959207e-05,151.452743
3.04917607e-05,147.180917
3.30355207e-05,141.400963
3.66269424e-05,134.289754
3.87222658e-05,130.605957
4.08175892e-05,127.209588
4.52550302e-05,120.812097
4.91383979e-05,115.940093
5.43162216e-05,110.275681
5.91143814e-05,105.705676
6.39125413e-05,101.660489
6.90874633e-05,97.779092
7.3039761e-05,95.096875
7.69920587e-05,92.6239388
8.29205052e-05,89.2515326
8.78038325e-05,86.7341803
9.51288236e-05,83.3281032
0.000105470653,79.1375335
0.00011150433,76.9667079
0.000117538006,74.9652622
0.000130316026,71.1952894
0.000141498541,68.3242738
0.000156408561,64.9863063
0.000170225304,62.2932631
0.000184042047,59.9094924
0.000198943712,57.622244
0.000210324717,56.0416566
0.000227396224,53.8971456
0.000245808225,51.8394701
0.000259870216,50.4175283
0.000287994197,47.8927777
0.000303712457,46.637124
0.000321086984,45.3579068
0.000355836039,43.0865749
0.000375256997,41.956957
0.000396724384,40.8061414
0.000428925466,39.2447399
0.000463655048,37.7465668
0.000503441632,36.2245791
0.000543228215,34.8730321
0.000589263062,33.4834102
0.000622035714,32.5896029
0.000671194692,31.373728
0.000728073815,30.1236024
0.000768566612,29.3195208
0.000829305808,28.2257043
0.000874567983,27.4858214
0.000924599535,26.7320579
0.000974631086,26.0371125
0.00108058707,24.7281112
0.00117331305,23.7312588
0.00129694769,22.5722937
0.00141151682,21.6372676
0.00152608595,20.8096355
0.00164965131,20.0155296
0.00174402318,19.4667773
0.00188558098,18.7222537
0.00203825422,18.0078933
0.00215485696,17.5142498
0.00227145969,17.0591318
0.0024463638,16.4384907
0.00259043426,15.975222
0.00273450472,15.5490757
0.00302264564,14.790122
0.00328965864,14.1778327
0.00364567596,13.4686094
0.00395462187,12.9324953
0.00428453423,12.4253203
0.00461444659,11.9735846
0.00488619908,11.6364012
0.0052938278,11.1802049
0.00570145653,10.773881
0.00603722485,10.4705975
0.00637299317,10.191626
0.00687664566,9.81215697
0.00725196189,9.55549274
0.00766682605,9.29402923
0.00849655436,8.82983191
0.0089602826,8.59899467
0.00947287493,8.36384499
0.0104980596,7.9463756
0.0113876978,7.63083861
0.0123377108,7.33236605
0.0132877238,7.06654904
0.0144615283,6.77506817
0.0156353327,6.51711469
0.0169013069,6.26965942
0.0178681827,6.09869115
0.0188350585,5.94109003
0.0202853722,5.72621174
0.0214800118,5.56585296
0.0226746513,5.41837232
0.0238692908,5.2821367
0.0253,5.13188961
0.0267170394,4.99517428
0.0281340788,4.86895556
0.0309681576,4.64311553
0.0327919243,4.51359212
0.0346156909,4.39448535
0.0382632242,4.18245992
0.0411316121,4.03602499
0.044,3.90422599
0.0472767656,3.76867575
0.0500609735,3.66418194
0.0542372853,3.5228934
0.0584135971,3.39714603
0.0618536716,3.30335283
0.0652937462,3.21713326
0.0687338207,3.13752621
0.0721738952,3.06373302
0.0764243367,2.97959764
0.0806747783,2.90227122
0.0849252198,2.83088954
0.0891756613,2.76473448
0.0944273653,2.68932513
0.102304921,2.58743944
0.110182477,2.49684563
0.119915723,2.39768561
0.129648969,2.31011262
0.140146491,2.22628849
0.148163874,2.16849414
0.160189948,2.09027544
0.172327166,2.02000773
0.184293094,1.95784198
0.192139188,1.92037286
0.207831377,1.8521266
0.220070914,1.80423709
0.232310452,1.7603433
0.256789528,1.68260098
0.271912293,1.64018388
0.287035058,1.60136069
0.317280588,1.53275201
0.345308366,1.47798985
0.373336143,1.43004566
0.403564725,1.38459725
0.438194913,1.33908745
0.484368498,1.28719254
0.509426373,1.26250146
0.534484249,1.23988751
0.5846,1.20000586
0.633714461,1.16671775
0.668959337,1.14578575
0.704204213,1.12698561
0.749483,1.105577
0.831560834,1.0734209
0.913638668,1.04831684
0.992974167,1.02952541
1.07230967,1.01525875
1.16173363,1.00383464
1.22747788,0.998218397
1.32756684,0.993720959
1.43474248,0.993845567
1.51466005,0.997024683
1.59457763,1.00271781
1.714454,1.01584285
1.77653621,1.02478346
1.88291207,1.04353188
1.99016,1.06692987
2.082062,1.09073175
2.19488587,1.12498549
2.31452,1.16786696
2.425343,1.21423927
2.482106,1.24070707
2.58482,1.29374919
2.69294,1.35752674
2.80106,1.43059543
2.88215,1.49234278
2.96324,1.56083907
3.0173,1.61066787
3.07136,1.66416172
3.15245,1.7519942
3.20651,1.81615672
3.25066066,1.87223484
3.29616033,1.93378305
3.34166,1.99946103
3.39572,2.08335713
3.44978,2.1742571
3.53087,2.32544223
3.58493,2.43744504
3.63899,2.55965576
3.69305,2.69332077
3.74711,2.83988623
3.7944125,2.98003164
3.85523,3.17874904
3.895775,3.32428293
3.93632,3.48156433
3.97636403,3.64969449
4.01741,3.83671786
4.057955,4.03775667
4.0985,4.25694808
4.139045,4.49654329
4.166075,4.66888261
4.193105,4.85232145
4.23365,5.15045471
4.26068,5.36615482
4.28771,5.59688445
4.328255,5.97434262
4.355285,6.24930999
4.382315,6.54515365
4.409345,6.86405018
4.436375,7.20846862
4.463405,7.58121903
4.490435,7.98551064
4.517465,8.42502208
4.544495,8.9039863
4.571525,9.42729409
4.598555,10.0006209
4.61207,10.3080673
4.6391,10.9691743
4.652615,11.324932
4.679645,12.0927957
4.69316,12.5075981
4.72019,13.406631
4.7404625,14.1486556
4.760735,14.9564095
4.7810075,15.8379287
4.80128,16.8025186
4.8215525,17.8610034
4.8350675,18.6249846
4.8485825,19.4405489
4.868855,20.7712013
4.88237,21.7378525
4.895885,22.7754408
4.9161575,24.480703
4.9296725,25.728942
4.94295751,27.0536399
4.95601252,28.4599969
4.96346,29.3130452
4.9702175,30.1214015
4.9837325,31.843942
4.99049,32.7622951
5.004005,34.7247831
5.01752,36.8726066
5.031035,39.229935
5.0377925,40.4958092
5.0513075,43.2218587
5.0648225,46.2375993
5.0783375,49.5856976
5.085095,51.3998962
5.0918525,53.3169821
5.09861,55.3449034
5.1053675,57.4923911
5.112125,59.7690537
5.1188825,62.1854855
5.12564,64.7533899
5.1323975,67.4857222
5.139155,70.3968535
5.1459125,73.5027607
5.15267,76.8212464
5.15858281,79.9148777
5.16534031,83.6874075
5.17209781,87.7363765
5.17885531,92.0895082
5.18561281,96.7780904
5.19279266,102.16696
5.1999725,108.023011
5.20715234,114.401908
5.21475453,121.79743
5.22235672,129.939917
5.23038125,139.460495
5.23798344,149.486336
5.24220688,155.53352
5.24643031,161.957545
5.25065375,168.790388
5.25487719,176.067488
5.25910063,183.828206
5.26281725,191.092362
5.26720962,200.249205
5.27126413,209.301534
5.2756565,219.821937
5.279711,230.256402
5.2837655,241.454885
5.28782,253.493763
5.2918745,266.45918
5.2972805,285.357964
5.301335,300.887262
5.306741,323.6503
5.309444,336.014966
5.312147,349.103222
5.31485,362.97252
5.317553,377.686105
5.320256,393.31374
5.322959,409.932515
5.325662,427.627795
5.328365,446.494298
5.331068,466.63735
5.333771,488.174338
5.336474,511.236394
5.339177,535.970366
5.34188,562.541117
5.344583,591.134233
5.347286,621.959205
5.35066475,663.993265
5.35336775,700.756528
5.3567465,751.151356
5.3594495,795.469849
5.36282825,856.579686
5.36417975,883.000112
5.366207,924.969143
5.3675585,954.622561
5.36958575,1001.83099
5.37093725,1035.26174
5.3729645,1088.60988
5.374316,1126.48048
5.37634325,1187.06817
5.37769475,1230.19102
5.379722,1299.37232
5.38174925,1374.49204
5.3837765,1456.23989
5.38580375,1545.40702
5.387831,1642.90412
5.38985825,1749.78331
5.3918855,1867.26469
5.39391275,1996.76884
5.39594,2139.95657
5.39796725,2298.77791
5.39931875,2414.46334
5.40067025,2538.8933
5.4026975,2743.88501
5.404049,2894.26228
5.4054005,3056.97201
5.406752,3233.35103
5.4081035,3424.91416
5.409455,3633.38186
5.4108065,3860.71239
5.412158,4109.13963
5.4135095,4381.21725
5.414861,4679.87033
5.41553675,4840.19292
5.41655037,5095.71872
5.41790188,5467.21087
5.41857762,5667.43413
5.41959125,5987.64561
5.420267,6215.388
5.42128062,6580.30872
5.42195638,6840.34084
5.42297,7257.78762
5.42364575,7555.79587
5.42465938,8035.0714
5.425673,8556.61119
5.42668663,9124.77805
5.42770025,9744.35504
5.42871387,10420.5504
5.4297275,11158.9831
5.43074113,11965.6377
5.43175475,12846.7756
5.4324305,13478.735
5.43310625,14148.5143
5.433782,14857.9243
5.43445775,15608.6538
5.4351335,16402.1976
5.43580925,17239.7665
5.4370256,18860.6077
5.4375662,19627.777
5.4386474,21245.9385
5.439188,22094.654
5.4402692,23861.6453
5.4440534,30343.5995
5.4451346,32059.2674
5.4459455,33221.2166
5.4464861,33916.3465
5.4470267,34535.5234
5.4475673,35068.7533
5.4481079,35506.9715
5.4486485,35842.4025
5.4491891,36068.8906
5.45,36195.6005
5.4508109,36062.6381
5.4513515,35832.0572
5.4518921,35492.6434
5.4524327,35050.5914
5.4529733,34513.7104
5.4535139,33891.0934
5.4540545,33192.7559
5.4548654,32026.4644
5.4559466,30305.917
5.4591902,24727.6371
5.460812,22046.4442
5.4618932,20374.5142
5.4624338,19579.0384
5.463515,18073.5782
5.46419075,17191.4065
5.4648665,16354.1705
5.46588012,15180.6384
5.46689375,14101.8971
5.46790737,13112.3886
5.468921,12205.9287
5.46993463,11376.1159
5.47094825,10616.609
5.471624,10146.3025
5.47263763,9490.5768
5.47331338,9084.20786
5.47398913,8700.67332
5.47466488,8338.53337
5.4756785,7832.49571
5.47635425,7518.09162
5.47703,7220.693
5.47770575,6939.22059
5.4783815,6672.66642
5.47905725,6420.08992
5.48040875,5953.42119
5.48176025,5532.89018
5.48311175,5153.00766
5.48446325,4809.00976
5.48581475,4496.75975
5.48716625,4212.66153
5.48851775,3953.58437
5.48986925,3716.798
5.490545,3606.00622
5.4918965,3398.27725
5.49257225,3300.85159
5.49392375,3117.76964
5.4945995,3031.71081
5.495951,2869.64191
5.49662675,2793.29843
5.49797825,2649.23322
5.498654,2581.23396
5.50068125,2391.86863
5.5027085,2222.14799
5.50473575,2069.50261
5.50608725,1976.13871
5.5081145,1847.29057
5.509466,1768.14172
5.51149325,1658.46685
5.51284475,1590.83006
5.514872,1496.75835
5.5162235,1438.53465
5.51825075,1357.27861
5.51960225,1306.82031
5.5216295,1236.18061
5.522981,1192.18119
5.525684,1110.8644
5.528387,1037.49908
5.53109,971.091162
5.533793,910.795814
5.536496,855.891563
5.539199,805.759481
5.541902,759.866309
5.544605,717.75072
5.547308,679.012062
5.5486595,660.798152
5.5513625,626.483979
5.5540655,594.753589
5.55812,551.460645
5.560823,525.153183
5.563526,500.670413
5.5675805,467.013643
5.571635,436.617086
5.5756895,409.074741
5.579744,384.041656
5.5837985,361.223267
5.587853,340.366854
5.5919075,321.254622
5.595962,303.698085
5.598665,292.776229
5.604071,272.617944
5.606774,263.305805
5.61218,246.049272
5.617586,230.425151
5.620289,223.161857
5.625695,209.622669
5.63177675,195.804672
5.6378585,183.30116
5.64258875,174.380949
5.64934625,162.718817
5.65610375,152.181607
5.66286125,142.62953
5.66961875,133.943821
5.6729975,129.893566
5.679755,122.321834
5.68313375,118.780201
5.68989125,112.140246
5.69327,109.025715
5.7000275,103.171065
5.70340625,100.417791
5.71016375,95.2296194
5.7135425,92.7839571
5.72367875,85.9829466
5.73043625,81.8531878
5.7405725,76.191017
5.74733,72.7341239
5.75746625,67.9706143
5.76422375,65.0483225
5.77436,61.0033473
5.7811175,58.511118
5.79125375,55.0474619
5.79801125,52.9050804
5.80476875,50.8843437
5.81152625,48.9762401
5.8216625,46.3075507
5.82842,44.6467607
5.841935,41.5801905
5.85545,38.8164023
5.868965,36.3169231
5.88248,34.0491936
5.895995,31.9855114
5.90951,30.1021872
5.923025,28.3788673
5.93654,26.7979865
5.950055,25.3443215
5.96357,24.004627
5.977085,22.7673349
5.9973575,21.0815612
6.01763,19.5744226
6.0379025,18.2216344
6.058175,17.0028966
6.0784475,15.9011344
6.09872,14.9019029
6.1189925,13.9929162
6.1421646,13.0510392
6.1595375,12.4051485
6.17981,11.7095638
6.193325,11.2774389
6.220355,10.4811151
6.23387,10.1138138
6.2609,9.43413527
6.28793,8.81988967
6.301445,8.5347246
6.328475,8.00383812
6.34199,7.75652971
6.3622625,7.40622963
6.39605,6.87228812
6.42308,6.48508955
6.45011,6.12927853
6.47714,5.80157234
6.50417,5.49910529
6.5312,5.21936686
6.55823,4.96015021
6.58526,4.7195092
6.61229,4.49572238
6.652835,4.18834974
6.679865,4.00037971
6.706895,3.82460952
6.74744,3.58161449
6.77447,3.43208337
6.8015,3.29159538
6.842045,3.09628689
6.88259,2.91763102
6.923135,2.75380165
6.96368,2.60321533
7.004225,2.46449373
7.04477,2.33643259
7.085315,2.21797604
7.12586,2.10819525
7.15289,2.03941914
7.20695,1.91147647
7.23398,1.8519208
7.28804,1.74077476
7.31507,1.68887556
7.36913,1.59173398
7.42319,1.502657
7.45022,1.46086931
7.50428,1.3823115
7.56713899,1.29861568
7.62119899,1.23252181
7.69349,1.15168815
7.74755,1.09629316
7.80161,1.04477851
7.85567,0.996793724
7.90973,0.952026826
7.96379,0.910199358
8.01785,0.871062177
8.07191,0.834391838
8.12597,0.79998749
8.18003,0.767668193
8.23409,0.737270609
8.28815,0.708646989
8.3408585,0.682319031
8.3922155,0.658058085
8.474657,0.62174758
8.53142,0.5984772
8.58548,0.5775179
8.674679,0.545286772
8.780096,0.510592713
8.85578,0.487711813
8.93687,0.464886944
9.0193115,0.443312459
9.1301345,0.416641755
9.185546,0.40421889
9.27306134,0.385726684
9.36057667,0.368506088
9.50011334,0.34340446
9.56988167,0.331833759
9.6734375,0.315743851
9.82176463,0.294730983
9.9626585,0.276729337
10.1035524,0.260398391
10.2329585,0.246700453
10.3664191,0.233734141
10.5194765,0.2201545
10.6725339,0.207797328
10.7897765,0.199070026
10.923575,0.189814838
11.058725,0.181157582
11.1864418,0.173555376
11.3067252,0.166864462
11.4165544,0.161120021
11.5656168,0.153834054
11.772317,0.144607002
11.983151,0.1361219
12.2075,0.127989283
12.34265,0.123486458
12.4778,0.119253314
12.688634,0.113139873
12.899468,0.107563896
13.12652,0.102091917
13.353572,0.0971102899
13.580624,0.0925640372
13.807676,0.0884057365
13.953638,0.0859180677
14.1948455,0.0820955195
14.424245,0.0787630494
14.692553,0.0752004378
14.826707,0.0735425265
15.1808,0.0695213178
15.575438,0.0655771759
15.970076,0.0621202511
16.39715,0.0588504316
16.8026,0.0561379444
17.254001,0.0535069337
17.6563605,0.0514644774
18.015925,0.0498536467
18.517375,0.0479089109
18.7681,0.047056795
19.26955,0.0455718399
19.771,0.0443569824
20.17216,0.0435656692
20.57332,0.04292676
21.0406714,0.042368537
21.37564,0.042090038
21.7768,0.0418908836
22.1398498,0.0418399026
22.4326966,0.0418918502
22.9767699,0.0422245661
23.24655,0.0425133515
23.5980664,0.0430271219
23.9350408,0.0436828757
24.103528,0.0440778127
24.3502414,0.0447462846
24.58492,0.0454928189
24.7855,0.0462274241
25.0302076,0.0472611223
25.2979819,0.0485936152
25.4985619,0.0497538993
25.68811,0.0510004031
25.8866842,0.0524890856
26.0381221,0.0537708002
26.2507369,0.0558237416
26.4513169,0.0580864236
26.640865,0.0605828075
26.8228262,0.0633842387
26.9913134,0.0664169459
27.1513411,0.069783227
27.3007732,0.0734584482
27.433156,0.0772466395
27.513388,0.0798356818
27.5976316,0.0828339081
27.673852,0.0858298446
27.754084,0.0893188232
27.834316,0.0932060605
27.914548,0.097558493
27.99478,0.102458112
28.075012,0.108006243
28.155244,0.114329324
28.215418,0.119674582
28.255534,0.123569836
28.29565,0.127763402
28.355824,0.134685641
28.415998,0.142483945
28.456114,0.14824734
28.49623,0.154527449
28.536346,0.161390158
28.5714475,0.167933029
28.6015345,0.173987865
28.646665,0.183942497
28.676752,0.191233704
28.7218825,0.203300397
28.767013,0.216936321
28.807129,0.230608499
28.847245,0.246000803
28.867303,0.254435444
28.887361,0.263420561
28.907419,0.273005957
28.927477,0.283247215
28.947535,0.294206525
28.967593,0.305953646
28.987651,0.318567043
29.007709,0.332135223
29.027767,0.346758321
29.057854,0.370923771
29.077912,0.388716543
29.09797,0.408036971
29.1230425,0.434615391
29.148115,0.464284914
29.158144,0.477127606
29.178202,0.504684184
29.188231,0.519480571
29.208289,0.551342337
29.218318,0.568513003
29.238376,0.605632822
29.258434,0.646921423
29.2734775,0.68101129
29.288521,0.718133021
29.3035645,0.758658929
29.318608,0.803020317
29.328637,0.834969924
29.338666,0.869014488
29.3537095,0.924426303
29.3637385,0.964578469
29.3737675,1.0075845
29.3837965,1.05372225
29.3938255,1.10330425
29.4038545,1.15668302
29.4138835,1.21425734
29.418898,1.24475694
29.428927,1.30949241
29.438956,1.37967579
29.448985,1.45593725
29.4539995,1.49656939
29.4640285,1.58333942
29.4740575,1.67821227
29.4815793,1.75530548
29.489101,1.83804191
29.49913,1.95812266
29.509159,2.09079473
29.519188,2.23788396
29.529217,2.40155948
29.5342315,2.49040817
29.539246,2.58441414
29.5442605,2.6839846
29.549275,2.78956779
29.5542895,2.90165798
29.559304,3.02080124
29.5643185,3.14760218
29.569333,3.28273152
29.5743475,3.42693507
29.579362,3.58104395
29.5843765,3.74598662
29.589391,3.92280285
29.5944055,4.11266015
29.59942,4.31687299
29.6044345,4.53692564
29.609449,4.7744991
29.6144635,5.03150323
29.6169708,5.16796051
29.6219853,5.45828862
29.6269998,5.77409474
29.6320142,6.11844738
29.6370287,6.49489077
29.639536,6.69640617
29.6445505,7.12890116
29.649565,7.60508024
29.6520722,7.86141112
29.6570868,8.41484909
29.6605969,8.83803507
29.6636056,9.22687166
29.6666143,9.64210551
29.669623,10.086177
29.6716288,10.39958
29.6756404,11.072077
29.679652,11.812289
29.6836636,12.6296005
29.6876752,13.5350751
29.6906839,14.2798383
29.6926897,14.8111113
29.6946955,15.3726558
29.6967013,15.9668092
29.6987071,16.5961378
29.7007129,17.2634647
29.7027187,17.971901
29.7047245,18.7248815
29.7067303,19.5262058
29.7087361,20.3800861
29.7107419,21.2912013
29.7127477,22.2647602
29.7147535,23.3065753
29.7167593,24.4231478
29.7187651,25.6217679
29.7207709,26.910631
29.7237796,29.0336662
29.7257854,30.5912465
29.7277912,32.2771121
29.729797,34.1056467
29.7307999,35.078463
29.7328057,37.1525687
29.7348115,39.4151147
29.7358144,40.6242081
29.7378202,43.2142924
29.739826,46.0582886
29.7408289,47.5858999
29.7428347,50.8761921
29.7438376,52.6496254
29.7458434,56.4834915
29.7473478,59.6374834
29.7488521,63.0600519
29.7503564,66.7821295
29.7518608,70.8391593
29.7533652,75.2718931
29.7543681,78.4587033
29.7553709,81.8489557
29.7568753,87.3542659
29.7578782,91.3331943
29.7588811,95.5849595
29.7603855,102.529536
29.7613884,107.578905
29.7623913,113.001767
29.7638956,121.917936
29.7648985,128.445245
29.7659014,135.495694
29.7669043,143.124779
29.7679072,151.395252
29.7689101,160.378222
29.769913,170.154453
29.7709159,180.815879
29.7719188,192.467378
29.7724203,198.701221
29.7731724,208.608316
29.7736739,215.610246
29.7744261,226.758121
29.7749275,234.651313
29.7756797,247.241559
29.7761811,256.172646
29.7769333,270.44549
29.7774347,280.589357
29.7781869,296.831473
29.7786884,308.396876
29.7794406,326.950432
29.7800674,343.610421
29.7808195,365.18039
29.7814464,384.590503
29.7821985,409.772576
29.7829507,437.216924
29.7837029,467.154981
29.784455,499.838092
29.7848311,517.292793
29.7853326,541.799193
29.7860848,581.37799
29.7868369,624.605761
29.787213,647.68187
29.7877145,680.048882
29.7880906,705.568607
29.788592,741.315681
29.7892188,788.857862
29.7898456,839.666213
29.7905727,902.75282
29.7911745,958.296226
29.7917762,1016.72858
29.792378,1077.8102
29.7931803,1162.69332
29.7953867,1403.30332
29.796189,1485.68197
29.7967907,1542.266
29.7971919,1576.57703
29.797593,1607.57138
29.7979942,1634.76394
29.7983954,1657.70447
29.7987965,1675.99477
29.7991977,1689.30514
29.7995988,1697.38867
29.8,1700.09249
29.8006017,1693.97658
29.8010029,1683.23113
29.8014041,1667.37172
29.8018052,1646.68849
29.8022064,1621.54751
29.8026075,1592.37529
29.8030087,1559.64179
29.8036104,1504.95266
29.8044128,1424.24206
29.8072209,1119.54399
29.8080232,1036.52478
29.8084244,996.654254
29.8092267,920.645526
29.8096278,884.613571
29.8105305,808.494514
29.8110319,769.164061
29.8115333,731.903457
29.8120348,696.655461
29.8125363,663.349546
29.8130377,631.906111
29.8135392,602.23986
29.8142913,560.879187
29.8150435,523.017762
29.8157957,488.361063
29.8165478,456.627663
29.8173,427.553399
29.8180522,400.893453
29.8185536,384.349613
29.8193058,361.223786
29.8198073,346.850134
29.8205594,326.723922
29.8210609,314.192385
29.8215624,302.317605
29.8220638,291.058391
29.8230667,270.235698
29.8235681,260.603114
29.8245711,242.740073
29.8255739,226.563446
29.8265769,211.878901
29.8275797,198.517496
29.8285827,186.332144
29.8295856,175.194563
29.8305885,164.992658
29.8315914,155.628274
29.8325942,147.015277
29.8335972,139.077914
