energy [eV],cross section [b]
1e-05,194.578193
1.09505432e-05,185.941512
1.19010865e-05,178.361414
1.29319437e-05,171.104856
1.37262672e-05,166.080266
1.45205907e-05,161.473826
1.57120759e-05,155.230666
1.6707743e-05,150.534289
1.77034102e-05,146.239902
1.86990774e-05,142.293246
1.96947445e-05,138.649793
2.15668151e-05,132.495594
2.28148622e-05,128.820669
2.40629093e-05,125.435492
2.62513326e-05,120.093328
2.85979323e-05,115.060776
3.0944532e-05,110.612119
3.29054731e-05,107.265645
3.58468846e-05,102.770645
3.87882962e-05,98.797171
4.1246293e-05,95.8081509
4.37042898e-05,93.0749786
4.61622867e-05,90.5631211
4.86202835e-05,88.2442373
5.17013289e-05,85.5744898
5.47823744e-05,83.1332617
5.78634198e-05,80.8897087
6.09444652e-05,78.818517
6.48064885e-05,76.4339392
7.05995234e-05,73.2309625
7.63925583e-05,70.3996078
8.36540013e-05,67.2748259
9.09154442e-05,64.5323208
9.87904263e-05,61.9068743
0.000104858467,60.088962
0.000113960527,57.6393995
0.000123831645,55.2943922
0.000131437801,53.6706618
0.000139043958,52.1820596
0.000146650114,50.8108263
0.000155220267,49.388229
0.000164754418,47.9379393
0.000174288569,46.6083441
0.00018382272,45.3835811
0.000200540646,43.4507778
0.000218466921,41.6299939
0.000236393197,40.0204656
0.000258863392,38.2441353
0.000281333587,36.6851175
0.000305702351,35.1926447
0.000324479618,34.1592272
0.000343256884,33.2118121
0.000371422784,31.9277716
0.000394959678,30.9618617
0.000418496573,30.0786307
0.000442033467,29.266919
0.000465570361,28.517568
0.000509824837,27.2518331
0.000539327821,26.4960122
0.000568830805,25.7997849
0.000620563643,24.7010675
0.000676035664,23.6660305
0.000731507684,22.7510851
0.000777862996,22.0628251
0.000847395964,21.1383537
0.000916928932,20.3211459
0.000975034305,19.7064087
0.00103313968,19.1442922
0.00112029774,18.3846009
0.00118576733,17.8699268
0.00125860115,17.3452358
0.00133143497,16.8642118
0.00140426879,16.4211158
0.0014863335,15.9614239
0.0015776291,15.4927856
0.0017145725,14.8613185
0.00186308663,14.2568088
0.0020347422,13.6423219
0.00220639777,13.1010235
0.00240706064,12.5432031
0.00255050498,12.1854716
0.0027656715,11.7020062
0.00301719803,11.2037854
0.00319700238,10.884276
0.00337680674,10.5906413
0.0035566111,10.3195679
0.00378199194,10.0074825
0.00400737278,9.72211392
0.00423275362,9.45985589
0.00445813446,9.21774888
0.00488189942,8.80881048
0.00530566437,8.44990876
0.00576523439,8.10633437
0.00629641452,7.75709594
0.00682759465,7.44945972
0.0074485365,7.13244047
0.00789241831,6.92913942
0.00855824102,6.65438873
0.00905838001,6.4682565
0.00961477618,6.27850651
0.0104493704,6.02283594
0.0110057666,5.86880104
0.0117031971,5.69146574
0.0124006275,5.52931591
0.013098058,5.38030175
0.0142325954,5.16173203
0.0155439162,4.93956814
0.016855237,4.74387762
0.018388152,4.54222807
0.0200318641,4.35228231
0.0216755761,4.1843903
0.0234877881,4.020132
0.0253,3.87386951
0.0267023965,3.77106561
0.028891604,3.62582145
0.0306133459,3.52272355
0.0323350878,3.4279831
0.0340568297,3.34052964
0.0372940786,3.19283164
0.0394522445,3.10464875
0.0416104105,3.02342862
0.0440421004,2.93917713
0.0467473143,2.85329818
0.0508051353,2.73760208
0.0552058125,2.62687114
0.0602922026,2.5143424
0.0653785926,2.41524468
0.0691992823,2.34812534
0.073449735,2.27971552
0.079825414,2.18756451
0.0867397915,2.09938116
0.0920676413,2.03834336
0.097395491,1.98240283
0.102723341,1.93088925
0.108726437,1.87746408
0.115404781,1.82301958
0.125422296,1.74969448
0.13210064,1.70553877
0.140471798,1.65472522
0.153028534,1.58651568
0.165585271,1.52626687
0.181324867,1.45983256
0.191817931,1.42019488
0.207557527,1.36651796
0.220710354,1.32617733
0.240439594,1.27204886
0.260168835,1.22426245
0.276655616,1.18835875
0.293142398,1.15556458
0.30962918,1.12545958
0.326115962,1.09769882
0.346781783,1.0657787
0.377780515,1.02298082
0.398446336,0.997315404
0.421731325,0.970731025
0.46058756,0.931034416
0.499443795,0.896168116
0.544866169,0.860354107
0.577336464,0.837457679
0.626041907,0.806614947
0.682977862,0.774970563
0.723678669,0.7547627
0.78472988,0.727574785
0.830589071,0.709246177
0.881606645,0.690646228
0.93262422,0.673678856
1.03519494,0.643676034
1.15123306,0.615029307
1.22704319,0.598730465
1.30502785,0.583608196
1.42526665,0.563027802
1.58558505,0.539759229
1.70639239,0.524749115
1.86707889,0.507475363
2.05046966,0.490801293
2.1764164,0.480890159
2.36533652,0.467965856
2.57021901,0.456148125
2.72809051,0.448347666
2.885962,0.441520821
3.12276925,0.432853501
3.31074245,0.42713633
3.49871565,0.422313959
3.68668886,0.418287746
3.91432316,0.414363497
4.90651873,0.407103374
5.1666624,0.407408941
5.4199958,0.408472973
5.77466256,0.411168138
6.15021425,0.415492767
6.4333294,0.419728169
6.9399962,0.429386471
7.20599627,0.435536488
7.47199634,0.442448388
7.83124463,0.453032992
8.2066632,0.465702908
8.4599966,0.475235154
8.71333,0.485605862
9.2199968,0.509058567
9.4733302,0.522256259
9.82163015,0.542166048
10.1066637,0.560112863
10.4866638,0.586602348
10.7399972,0.606055778
11.1199973,0.638249054
11.4999974,0.674517481
11.8799975,0.715477189
12.2128501,0.755795638
12.513331,0.79627876
12.6399977,0.814636286
12.8933311,0.853889262
13.0199978,0.874884595
13.2733312,0.919892233
13.3999979,0.944029655
13.6216646,0.989157256
13.8116647,1.03103609
14.0016647,1.07618408
14.1916648,1.12494338
14.3816648,1.17770286
14.5716649,1.23490609
14.6666649,1.26532997
14.8566649,1.33017387
15.046665,1.40087679
15.1829926,1.45561683
15.3633318,1.53375289
15.4899984,1.59292196
15.6166651,1.65598321
15.8066652,1.75864706
15.9966652,1.87221644
16.1866653,1.99829532
16.3766653,2.13879585
16.5666654,2.2960124
16.7566654,2.47271723
16.8199988,2.53651263
16.9466655,2.67228533
17.0099989,2.74457877
17.1366655,2.89885916
17.1999989,2.98123803
17.3266656,3.15756843
17.3899989,3.25201055
17.5166657,3.45482703
17.6433324,3.67833286
17.769999,3.92545724
17.8966657,4.19966863
17.9916658,4.42555928
18.0866658,4.67103115
18.1499991,4.84670035
18.2449992,5.13019048
18.3399992,5.4403486
18.4349992,5.78064587
18.4983326,6.02623028
18.5933326,6.42611743
18.6883326,6.86860847
18.7833326,7.36000888
18.8783327,7.90783813
18.9733327,8.52112163
19.0315502,8.93390012
19.0828871,9.32397566
19.1316661,9.71940035
19.1949994,10.2724647
19.2266661,10.5673005
19.2899994,11.1973015
19.3216661,11.5341283
19.3849995,12.2560874
19.4166661,12.6433073
19.4799995,13.4761051
19.5116662,13.9243347
19.5749995,14.8919654
19.6224995,15.6867512
19.6699995,16.5481044
19.7174996,17.4836951
19.7491662,18.1529622
19.7808329,18.8620439
19.8283329,20.0074756
19.8599996,20.8309702
19.8916663,21.7071448
19.9391663,23.1303871
19.970833,24.1595388
20.0024996,25.2598836
20.0499997,27.0588417
20.0816663,28.3684544
20.113333,29.7766759
20.160833,32.0965133
20.1924997,33.7987636
20.2241664,35.6416073
20.255833,37.6409862
20.2874997,39.8151671
20.3191664,42.1851604
20.3508331,44.7752299
20.3824997,47.6135156
20.3983331,49.1357784
20.4220831,51.5608867
20.4537498,55.0861514
20.4695831,56.986914
20.4933331,60.0292625
20.5123331,62.6432273
20.5281664,64.9550215
20.5471664,67.9031614
20.5629998,70.5169064
20.5756665,72.7187085
20.5946665,76.2209525
20.6136665,79.9837291
20.6326665,84.0335133
20.6516665,88.4002241
20.6706665,93.1177743
20.6896665,98.224727
20.7086665,103.765079
20.7276665,109.789205
20.7403332,114.10229
20.7529998,118.675215
20.7719998,126.068885
20.7846665,131.389288
20.7973332,137.054199
20.8163332,146.26473
20.8289999,152.931053
20.8416665,160.063841
20.8606665,171.736192
20.8733332,180.241317
20.8859999,189.393584
20.8986665,199.260018
20.9113332,209.916497
20.9239999,221.449187
20.9366665,233.956245
20.9493332,247.549864
20.9619999,262.358733
20.9746666,278.531008
20.9809999,287.180917
20.9936666,305.72775
21.0063332,326.119238
21.0126666,337.083395
21.0221666,354.588214
21.0284999,367.020638
21.0379999,386.921165
21.0443332,401.092829
21.0538332,423.841078
21.0601666,440.087501
21.0696666,466.245589
21.0791666,494.777299
21.0886666,525.973958
21.0949999,548.416357
21.1044999,584.828658
21.1139999,624.927881
21.1234999,669.218107
21.1329999,718.290341
21.1424999,772.840561
21.1519999,833.692117
21.1551666,855.540314
21.1614999,901.823662
21.1646666,926.347717
21.1709999,978.404108
21.1773333,1034.83325
21.1836666,1096.11971
21.1868333,1128.75357
21.1931666,1198.38118
21.1995,1274.38828
21.2058333,1357.53863
21.2121666,1448.70627
21.2185,1548.89326
21.2248333,1659.25048
21.2311666,1781.10164
21.2375,1915.97091
21.2406666,1988.82608
21.2454166,2105.56413
21.2485833,2188.74785
21.25175,2276.55422
21.2549166,2369.29459
21.2596666,2518.39224
21.2628333,2624.97797
21.2675833,2796.62255
21.27075,2919.51821
21.2755,3117.71045
21.2786666,3259.79087
21.2834166,3489.1554
21.2881666,3739.68982
21.2929166,4013.37079
21.2976666,4312.23334
21.3008333,4526.46868
21.304,4753.37735
21.30875,5118.66673
21.3119166,5379.47524
21.3150833,5654.50847
21.3179333,5914.35428
21.3217333,6278.94993
21.3268,6796.4539
21.3293333,7067.87093
21.3344,7632.92367
21.3521333,9705.30271
21.3572,10253.6414
21.361,10624.9251
21.3635333,10846.9955
21.3660667,11044.756
21.3686,11215.0128
21.3711333,11354.8698
21.3736667,11461.844
21.3762,11533.9709
21.38,11574.0328
21.3838,11531.0612
21.3863333,11457.0343
21.3888667,11348.2181
21.3914,11206.5972
21.3939333,11034.672
21.3964667,10835.3527
21.399,10611.8436
21.4028,10238.6419
21.4078667,9688.20556
21.4230667,7904.16378
21.4306667,7046.8524
21.4357333,6512.29469
21.4382667,6257.97086
21.4433333,5776.67119
21.4465,5494.64705
21.4496667,5226.99389
21.4544167,4851.83958
21.4591667,4506.99583
21.4639167,4190.68354
21.4686667,3900.92394
21.4734167,3635.66939
21.4781667,3392.8917
21.4813334,3242.55893
21.4860834,3032.95908
21.48925,2903.06614
21.4924167,2780.47282
21.4955834,2664.7188
21.5003334,2502.97062
21.5035,2402.47625
21.5066667,2307.41792
21.5098334,2217.45059
21.513,2132.25202
21.5161667,2051.52152
21.5225,1902.36224
21.5288334,1767.95102
21.5351667,1646.53309
21.5415,1536.58559
21.5478334,1436.78614
21.5541667,1345.98521
21.5605,1263.18204
21.5668334,1187.50386
21.57,1152.09447
21.5763334,1085.7041
21.5795001,1054.56698
21.5858334,996.054619
21.5890001,968.55071
21.5953334,916.754769
21.5985001,892.35617
21.6048334,846.314717
21.6080001,824.583154
21.6175001,764.065349
21.6270001,709.826422
21.6365001,661.045085
21.6428334,631.208877
21.6523334,590.033514
21.6586667,564.740627
21.6681667,529.693256
21.6745001,508.079727
21.6840001,478.019227
21.6903334,459.414156
21.6998334,433.449562
21.7061668,417.326306
21.7156668,394.75466
21.7220001,380.695621
21.7346668,354.713064
21.7473334,331.271684
21.7600001,310.053766
21.7726668,290.789289
21.7853334,273.247664
21.7980001,257.231077
21.8106668,242.569096
21.8233334,229.114281
21.8360001,216.738584
21.8423335,210.919953
21.8550001,199.958102
21.8676668,189.821884
21.8866668,175.992421
21.9056668,163.609394
21.9246668,152.478938
21.9436668,142.438466
21.9626668,133.350833
21.9816668,125.099718
21.9943335,120.014123
22.0133335,112.943963
22.0323335,106.476288
22.0513335,100.544808
22.0640002,96.8596843
22.0893335,90.0681119
22.1020002,86.9352254
22.1273335,81.1373256
22.1526669,75.8967911
22.1653335,73.4635515
22.1906669,68.933019
22.2128336,65.3016065
22.2413336,61.0365905
22.2666669,57.5843166
22.2983336,53.6630283
22.3300002,50.1262983
22.3458336,48.4866659
22.3775003,45.4381217
22.3933336,44.0197431
22.4250003,41.3737452
22.4408336,40.1386405
22.4725003,37.8275052
22.4883336,36.7454937
22.5200003,34.7151634
22.5358336,33.7620201
22.5675003,31.9689037
22.5833337,31.1250045
22.6150003,29.5336392
22.6308337,28.7829521
22.6625003,27.3642525
22.7100003,25.4235085
22.741667,24.2412007
22.789167,22.6152949
22.8208337,21.619777
22.8683337,20.2443011
22.9000004,19.3983113
22.9475004,18.2244997
22.9791671,17.4996112
23.0108338,16.8167082
23.0425004,16.1726204
23.0900004,15.2730463
23.1216671,14.713974
23.1850005,13.6832384
23.2483338,12.7560684
23.3116672,11.9190867
23.3750005,11.1610046
23.4383339,10.4722433
23.5016672,9.84463238
23.5650006,9.27116866
23.6283339,8.74582193
23.6600006,8.4995346
23.7233339,8.03680421
23.7866673,7.61040699
23.8211502,7.39218869
23.8844836,7.01482079
23.9766673,6.51452387
24.0716674,6.05224919
24.1666674,5.63687442
24.2616674,5.26229242
24.3566674,4.92335681
24.4200008,4.71502163
24.5150008,4.42612858
24.6100008,4.16263088
24.7050009,3.9216529
24.7683342,3.77227255
24.8633343,3.56348067
24.9266676,3.43362693
25.0533343,3.19403634
25.180001,2.97831549
25.2433343,2.87843385
25.370001,2.6929508
25.4966678,2.52456956
25.6233345,2.37126455
25.7500011,2.23130064
25.8766678,2.10318462
26.0033345,1.98562588
26.1300012,1.87750437
26.256668,1.77784424
26.3833347,1.68579225
26.5100013,1.60059966
26.636668,1.52160735
26.8266681,1.41348953
26.9533348,1.3475943
27.0800015,1.28613391
27.2700015,1.20142702
27.4600016,1.12470734
27.6500017,1.05501137
27.808335,1.00169931
27.9983351,0.942827352
28.1883351,0.888936223
28.3783352,0.839486075
28.5683352,0.794007985
28.7583353,0.752093089
28.9483353,0.713383601
29.1383354,0.67756537
29.3600021,0.639064301
29.4866688,0.618511829
29.6133355,0.598931136
29.8212591,0.568742152
30.0745925,0.534943911
30.3733357,0.498825133
30.6266691,0.470998392
30.8800025,0.445452451
31.0066692,0.433459458
31.2600026,0.4108997
31.513336,0.390082799
31.7666694,0.370838583
32.0200028,0.35301717
32.2733362,0.336486161
32.5266696,0.321128263
32.780003,0.30683929
33.0333364,0.293526463
33.2866698,0.281106962
33.5400032,0.269506692
33.7933366,0.258659219
34.04667,0.248504863
34.3000034,0.238989909
34.5533368,0.230065931
34.8066702,0.221689198
35.2880037,0.207142454
35.5540037,0.199803242
35.8200038,0.192917627
36.2575002,0.182498544
36.7332167,0.172326972
36.9828618,0.167428366
37.4821519,0.158457726
37.8726167,0.152151048
38.1881502,0.14747449
38.5589073,0.142429353
38.925143,0.137897159
39.3592002,0.13307652
39.8294287,0.128498207
40.191143,0.125417693
40.570943,0.122589463
40.9145716,0.120389049
41.457143,0.117621055
41.9997144,0.115760197
42.3614287,0.115063859
42.5422858,0.114892189
42.9040001,0.114931728
43.2657144,0.115533239
43.6274287,0.116776166
43.8082858,0.117669892
44.0795715,0.119395749
44.2604287,0.120831565
44.4412858,0.122522403
44.6221429,0.124495495
44.8030001,0.126782625
44.9612501,0.12907059
45.1647144,0.132454512
45.3681787,0.136404251
45.5038215,0.139394761
45.7072858,0.144493995
45.8429286,0.148356074
46.0237858,0.154167959
46.1594286,0.159091228
46.3402858,0.166526353
46.4307144,0.170666209
46.6115715,0.179920673
46.7472143,0.187837398
46.8828572,0.196730082
46.9830601,0.204014423
47.0637143,0.210373219
47.1541429,0.218085054
47.2445715,0.226478664
47.335,0.235632234
47.4254286,0.245635603
47.5158572,0.256592403
47.6062858,0.268622684
47.6967143,0.281866136
47.7871429,0.296486075
47.8775715,0.312674403
47.968,0.330657832
48.0584286,0.350705743
48.1036429,0.36160214
48.1940715,0.385370538
48.2392858,0.398348837
48.2845,0.412136532
48.3297143,0.426801503
48.3749286,0.442418917
48.4201429,0.459072179
48.4653572,0.476854048
48.5105715,0.495867918
48.5783929,0.526955193
48.6462143,0.561528333
48.6914286,0.586775011
48.7366429,0.613992627
48.7818572,0.643390691
48.8270715,0.675207337
48.8722857,0.70971415
48.9175,0.74722196
48.9627143,0.788087858
49.0079286,0.832723703
49.0644465,0.894553933
49.0983572,0.935291299
49.1209643,0.964132975
49.1661786,1.02627157
49.2113929,1.09505401
49.2566072,1.17146069
49.2905179,1.23446357
49.3244286,1.30298363
49.3470357,1.35205202
49.3696429,1.40408585
49.39225,1.45932873
49.4261607,1.54880655
49.4487679,1.61331363
49.471375,1.68210626
49.4939822,1.75557232
49.5278929,1.87549453
49.5505,1.96265155
49.5844107,2.10564063
49.6070179,2.21011005
49.6409286,2.38247724
49.6635357,2.5091609
49.6748393,2.57642357
49.6974464,2.71953106
49.7200536,2.87519472
49.7313572,2.95819881
49.7539643,3.13560249
49.7765714,3.32979419
49.787875,3.4338547
49.8104822,3.65743633
49.8217857,3.77764671
49.8443929,4.03685341
49.8556964,4.17673117
49.8760429,4.44778321
49.8918679,4.67752225
49.9054322,4.88909222
49.9212572,5.15480118
49.9393429,5.48618212
49.9574286,5.85091775
49.9755143,6.25362913
49.9936,6.69976408
50.0026429,6.94108812
50.0162072,7.32845011
50.02525,7.60510607
50.0342929,7.89782139
50.0433357,8.20785968
50.0523786,8.53661089
50.0614214,8.8856067
50.0704643,9.2565382
50.0795071,9.65127612
50.0930714,10.2926182
50.1021143,10.7564555
50.1111571,11.252432
50.1202,11.7835728
50.1337643,12.6537407
50.1428071,13.2885415
50.1563714,14.3341638
50.1654143,15.101269
50.1699357,15.508086
50.1789786,16.3725267
50.1880214,17.3111172
50.1948036,18.0688863
50.2015857,18.8773337
50.2061071,19.4466962
50.21515,20.6651265
50.2196714,21.3175141
50.2287143,22.71793
50.2332357,23.4701285
50.2422786,25.0902423
50.2468,25.9634497
50.2558429,27.8511404
50.262625,29.4040436
50.2671464,30.511861
50.2716679,31.6828009
50.27845,33.5682321
50.2829714,34.9190855
50.2874929,36.3520652
50.294275,38.6703228
50.2987964,40.339365
50.3033179,42.1170854
50.3101,45.0083994
50.3146214,47.101468
50.3191429,49.3411035
50.3236643,51.7409874
50.3281857,54.3163916
50.3327071,57.0843975
50.3372286,60.0641508
50.34175,63.2771564
50.3462714,66.747622
50.3507929,70.5028573
50.3530536,72.4967594
50.357575,76.738308
50.3620964,81.3497295
50.3666179,86.3734129
50.3711393,91.8576618
50.3734,94.7894397
50.3779214,101.070407
50.3824429,107.965171
50.3847036,111.666531
50.389225,119.630953
50.3914857,123.91789
50.3960071,133.16758
50.3993982,140.754813
50.4027893,148.961267
50.4061804,157.849624
50.4095714,167.489535
50.4129625,177.958298
50.4163536,189.341533
50.4197446,201.733815
50.4231357,215.239196
50.4265268,229.971529
50.4287875,240.535392
50.4310482,251.738288
50.4344393,269.830164
50.4367,282.811604
50.4389607,296.579933
50.4423518,318.803744
50.4446125,334.729995
50.4468732,351.592351
50.4491339,369.427915
50.452525,398.073206
50.45569,426.910618
50.4593071,462.363527
50.46202,490.648532
50.4656371,530.434484
50.4692543,572.19449
50.4792014,690.557789
50.4828186,731.077536
50.4855314,758.907263
50.48734,775.781076
50.4891486,791.022465
50.4909571,804.3928
50.4927657,815.670609
50.4945743,824.660058
50.4963829,831.199005
50.4981914,835.166067
50.5,836.486137
50.5018086,835.133887
50.5036171,831.134972
50.5054257,824.564819
50.5072343,815.545106
50.5090429,804.238239
50.5108514,790.840284
50.51266,775.572899
50.5144686,758.674857
50.5171814,730.812307
50.5207986,690.25557
50.5307457,571.828062
50.5343629,530.056207
50.53798,490.26313
50.5397886,471.247266
50.5434057,435.136567
50.5463446,407.749107
50.5497357,378.335037
50.5519964,360.003181
50.5542571,342.661727
50.5565179,326.275944
50.5599089,303.402618
50.5621696,289.228795
50.5644304,275.864018
50.5678214,257.237992
50.5700821,245.705367
50.5723429,234.831966
50.5757339,219.671198
50.579125,205.777517
50.5825161,193.033726
50.5859071,181.332484
50.5892982,170.576074
50.5926893,160.675934
50.59495,154.511701
50.5983411,145.864787
50.6017321,137.877944
50.6062536,128.151896
50.610775,119.365572
50.6130357,115.28981
50.6175571,107.711245
50.6220786,100.823688
50.6243393,97.6143993
50.6288607,91.6211416
50.6333821,86.1433039
50.6379036,81.1257384
50.642425,76.5201562
50.6469464,72.2841827
50.6514679,68.3805515
50.6559893,64.7764147
50.6605107,61.442754
50.6650321,58.353877
50.6718143,54.1303585
50.6763357,51.5591304
50.6808571,49.1632495
50.6876393,45.8652582
50.6921607,43.8443976
50.6966821,41.9520121
50.7034643,39.3316929
50.7102464,36.9459682
50.7170286,34.7680547
50.7238107,32.7748291
50.7305929,30.9462532
50.737375,29.2648995
50.7441571,27.7155589
50.7532,25.832346
50.7577214,24.9612688
50.7667643,23.3452145
50.7712857,22.5949512
50.7803286,21.1982304
50.7893714,19.9262884
50.7938929,19.3325533
50.8029357,18.2215633
50.8119786,17.2031677
50.8165,16.7255328
50.8255429,15.8277975
50.8345857,15.0001583
50.8436286,14.2355454
50.8571929,13.1934321
50.8662357,12.5608299
50.8752786,11.9725573
50.8843214,11.4245867
50.8933643,10.9133357
50.9024071,10.4356096
50.91145,9.98855226
50.9204929,9.56960409
50.9295357,9.17646614
50.9385786,8.80706889
