energy [eV],cross section [b]
1e-05,49030.2789
1.0582375e-05,47662.031
1.14559374e-05,45808.7492
1.26885195e-05,43526.9018
1.37655783e-05,41789.3434
1.52016568e-05,39766.44
1.65296164e-05,38135.5688
1.83002293e-05,36243.7067
1.98344211e-05,34813.7226
2.1471729e-05,33460.0075
2.31090368e-05,32252.8379
2.44548493e-05,31352.7614
2.58006618e-05,30524.0605
2.78193805e-05,29395.656
3.01516062e-05,28235.838
3.18109256e-05,27489.5139
3.51295646e-05,26158.7774
3.81983515e-05,25085.9315
4.22900673e-05,23841.394
4.45742165e-05,23222.4491
4.7096657e-05,22591.9535
5.08803178e-05,21735.6354
5.49577798e-05,20913.704
5.96228443e-05,20078.7769
6.42879088e-05,19336.4616
6.96774577e-05,18573.4791
7.35119852e-05,18082.5109
7.92637764e-05,17413.9797
8.35449305e-05,16961.8642
8.82727111e-05,16501.3103
9.77282723e-05,15682.5838
0.000103006721,15275.4055
0.000108835838,14860.6273
0.000120494072,14123.275
0.000130595641,13565.9345
0.00013778265,13207.2926
0.00014496966,12875.6606
0.000156587282,12388.6793
0.000169879117,11893.9945
0.000183170953,11454.1775
0.00019852701,11002.1114
0.000209452456,10711.211
0.000225840624,10315.1007
0.000238038611,10047.216
0.000251509139,9774.3294
0.000264979667,9522.52224
0.000293489703,9047.94639
0.00031009819,8802.17411
0.000326706678,8575.38613
0.000361858126,8147.9615
0.000392574278,7822.48066
0.000423290429,7533.09568
0.000458776799,7235.64593
0.000496648278,6954.05155
0.000534519756,6702.93242
0.000565648849,6515.68993
0.000612342489,6262.06231
0.000659036128,6035.88143
0.000697416743,5867.23244
0.000735797357,5711.95188
0.000793368279,5500.50429
0.000836219276,5357.50006
0.000883540655,5211.82133
0.000978183412,4952.83318
0.00106018899,4757.05847
0.00111853389,4631.07265
0.00117687878,4514.56953
0.00127119184,4343.48144
0.00137909634,4169.67291
0.00148700085,4015.129
0.00161166292,3856.26632
0.00170035682,3754.031
0.00183339768,3614.80813
0.0019324222,3520.64477
0.00204177735,3424.71539
0.00220581007,3294.41188
0.00231516522,3215.33726
0.00244999465,3125.2175
0.00258482408,3042.23444
0.00271965351,2965.49237
0.00285448294,2894.24552
0.00302072088,2813.04507
0.00318695882,2738.27311
0.00335319676,2669.12289
0.00362191624,2567.56218
0.00392936084,2464.37094
0.00423680545,2372.60256
0.00459199619,2278.25373
0.00484470541,2217.52664
0.00522376923,2134.81632
0.00550591275,2078.86615
0.00581749057,2021.85853
0.0062848573,1944.40939
0.00659643513,1897.4009
0.006980595,1843.81787
0.00736475487,1794.46973
0.00774891474,1748.82537
0.00813307462,1706.44252
0.00860672453,1658.12998
0.00908037444,1613.63375
0.00955402435,1572.47536
0.0103196676,1512.01211
0.0111956476,1450.56002
0.0120716275,1395.89417
0.0130836472,1339.67438
0.0141636867,1286.42085
0.0152437262,1238.90402
0.0161314827,1203.4568
0.0170192392,1170.80618
0.0183508738,1126.32443
0.0193420317,1096.22699
0.0204365911,1065.55495
0.0220784301,1023.87627
0.0231729894,998.574947
0.0247682473,964.734699
0.0261177843,938.552263
0.0277533528,909.407701
0.0302350485,869.774836
0.0327309158,834.543797
0.0352267831,803.12381
0.0373782154,778.607066
0.0404055386,747.492014
0.0434328618,719.704581
0.045962283,698.639931
0.0484917041,679.262207
0.0522858359,652.911367
0.0551098714,635.121068
0.0582285212,617.03141
0.061347171,600.37561
0.0644658208,584.981699
0.0674388593,571.349232
0.07168,553.454556
0.078974277,526.299949
0.0861465671,503.267157
0.0932578637,483.340971
0.10227687,461.467336
0.111937539,441.47286
0.119812616,427.343095
0.128892616,413.083494
0.134035078,405.853209
0.14432,392.998029
0.152577752,384.054483
0.158848,377.995285
0.169744,368.820983
0.18064,361.201273
0.188120738,356.789662
0.202432,350.054961
0.209696,347.440551
0.224224,343.739493
0.231943462,342.572953
0.246016,341.838386
0.260544,342.954838
0.275072,346.005901
0.285974689,349.6126
0.296864,354.399489
0.311392,362.755114
0.32592,373.57202
0.333184,379.99405
0.34408,391.020981
0.357416245,407.039874
0.369504,424.285707
0.3804,442.382833
0.387664,455.967361
0.394928,470.90782
0.405824,496.17221
0.41672,525.369784
0.420352,536.092361
0.427616,559.198129
0.434728906,584.186288
0.438512,598.52824
0.442144,613.042725
0.449408,644.457083
0.45304,661.463876
0.460304,698.379689
0.467568,739.634328
0.473016,773.813325
0.478464,811.123751
0.483912,851.937671
0.48936,896.684019
0.492992,928.941554
0.496624,963.33203
0.502072,1019.32496
0.505704,1059.89741
0.509336,1103.34034
0.514784,1174.47808
0.518416,1226.33186
0.522048,1282.13389
0.52568,1342.27944
0.529312,1407.21304
0.532944,1477.43569
0.535999,1541.0107
0.540208,1636.08654
0.54384,1725.8822
0.547472,1823.72672
0.550196,1902.95381
0.553828,2017.22929
0.55746,2142.47725
0.561092,2280.06001
0.562908,2353.95673
0.565632,2471.78725
0.569264,2643.19646
0.57108,2735.62609
0.573804,2883.50366
0.57562,2988.71591
0.578344,3157.35742
0.58016,3277.56146
0.582884,3470.57926
0.5847,3608.39632
0.587424,3830.06488
0.58924,3988.58541
0.591964,4243.91916
0.59378,4426.7454
0.596504,4721.53902
0.599228,5043.10148
0.601952,5393.91605
0.604676,5776.54702
0.606492,6050.58084
0.608308,6340.63631
0.611032,6807.25987
0.612848,7140.24124
0.614664,7491.28491
0.6179328,8169.42156
0.620112,8654.35623
0.6222912,9164.50915
0.6244704,9697.93443
0.6266496,10251.5073
0.6360928,12737.1369
0.6389984,13450.8863
0.6411776,13937.2708
0.6426304,14229.9357
0.6440832,14492.1527
0.645536,14719.6737
0.6469888,14908.5822
0.6484416,15055.4458
0.6498944,15157.4597
0.6513472,15212.5716
0.65301792,15216.4485
0.6542528,15178.1793
0.6557056,15089.0037
0.6578848,14869.2165
0.6593376,14669.0404
0.6607904,14429.801
0.6622432,14155.4057
0.663696,13850.1282
0.6658752,13344.1441
0.6687808,12603.4818
0.6774976,10228.758
0.681856,9096.84136
0.6847616,8393.44651
0.6876672,7737.6224
0.68912,7428.27086
0.690936,7059.07871
0.69366,6541.24619
0.696384,6065.14259
0.699108,5628.56968
0.701832,5228.94481
0.703648,4981.69738
0.706372,4637.51746
0.708188,4424.67439
0.710912,4128.36609
0.712728,3945.0429
0.714544,3772.26626
0.71636,3609.369
0.718176,3455.72105
0.719992,3310.72933
0.721808,3173.83708
0.723624,3044.52272
0.72544,2922.29852
0.727256,2806.70897
0.729072,2697.32914
0.730888,2593.76296
0.732704,2495.64144
0.73452,2402.62102
0.738152,2230.62631
0.741784,2075.47685
0.7436,2003.58499
0.747232,1870.04806
0.749048,1808.0008
0.75268,1692.44372
0.754496,1638.60804
0.758128,1538.08778
0.759944,1491.13812
0.763576,1403.26081
0.765392,1362.11652
0.769024,1284.92599
0.77084,1248.70181
0.774472,1180.59163
0.776288,1148.55875
0.77992,1088.203
0.781736,1059.75828
0.785368,1006.05697
0.790816,932.734668
0.794448,888.160383
0.799896,826.998879
0.803528,789.639133
0.808976,738.145532
0.812608,706.553664
0.81624,676.943063
0.819872,649.154717
0.823504,623.044942
0.827136,598.48368
0.830768,575.353003
0.8344,553.545803
0.838032,532.964647
0.841664,513.520757
0.848928,477.727712
0.856192,445.5982
0.863456,416.65485
0.87072,390.494629
0.874352,378.349237
0.881616,355.738539
0.88888,335.14766
0.896144,316.345015
0.899776,307.550787
0.90704,291.064702
0.914304,275.916705
0.921568,261.966643
0.9252,255.40196
0.936096,237.185725
0.946992,220.938233
0.957888,206.386391
0.968784,193.302555
0.97968,181.495806
0.990576,170.805104
1.001472,161.093883
1.01030832,153.856983
1.019632,146.776645
1.030528,139.152428
1.045056,129.950348
1.05232,125.717867
1.066848,117.905184
1.081376,110.865542
1.08864,107.603828
1.103168,101.541875
1.121328,94.7329495
1.135856,89.8218402
1.154016,84.2639517
1.17036,79.7452695
1.18852,75.192493
1.20668,71.0710109
1.22484,67.3270777
1.23628103,65.1413973
1.25444103,61.9182452
1.27024,59.3361383
1.29748,55.3093032
1.31564,52.8877872
1.3338,50.6511453
1.36104,47.6024752
1.3792,45.7510617
1.39736,44.0284577
1.4246,41.6603945
1.45184,39.5210587
1.47908,37.581446
1.50632,35.8171023
1.54399186,33.6279088
1.57896,31.8208004
1.59712,30.957363
1.63344,29.3667223
1.6516,28.6332885
1.68792,27.2766227
1.70608,26.6486502
1.7424,25.4830223
1.76056,24.9417063
1.81504,23.4647107
1.86596586,22.2587958
1.924,21.0586828
1.97848,20.0762432
2.03296,19.2137335
2.08744,18.4555039
2.14192,17.7887102
2.17824,17.3896637
2.25088,16.6888205
2.32157227,16.1174878
2.35984,15.848989
2.39616,15.6185803
2.4688,15.224013
2.50512,15.0576981
2.57776,14.7825544
2.6504,14.579388
2.72304,14.443905
2.79568,14.3731384
2.88351125,14.3715529
2.97728,14.4704281
3.04648,14.6108808
3.13028,14.8603992
3.21772,15.2186933
3.30516,15.6852073
3.34888,15.9624818
3.3926,16.2713791
3.43632,16.6139285
3.5019,17.1960189
3.57018724,17.898259
3.6112,18.3723091
3.65492,18.9252554
3.7205,19.856642
3.76422,20.553318
3.80794,21.3178509
3.85166,22.1575157
3.89538,23.0807091
3.9391,24.0971545
3.97189,24.9274167
4.02654,26.4569004
4.0484,27.1251599
4.09212,28.5703616
4.11398,29.3522469
4.1577,31.0486454
4.17956,31.969569
4.22328,33.9752219
4.24514,35.0683805
4.28886,37.4596865
4.31072,38.769093
4.33100782,40.0596378
4.36537,42.4276893
4.39816,44.9268
4.42002,46.7390635
4.44188,48.6811858
4.47467,51.8658082
4.49653,54.1911487
4.51839,56.697834
4.55118,60.8407397
4.56211,62.3349488
4.58397,65.5122955
4.5949,67.2025829
4.61676,70.8062318
4.63862,74.7372879
4.66048,79.0366506
4.67141,81.3390035
4.69327,86.282345
4.71513,91.7281869
4.73699,97.7471302
4.756664,103.722869
4.778524,111.073693
4.800384,119.286336
4.809128,122.843241
4.826616,130.478923
4.83536,134.580744
4.848476,141.124641
4.85722,145.769011
4.870336,153.198202
4.87908,158.485369
4.892196,166.967318
4.90094,173.021788
4.914056,182.765484
4.9228,189.743404
4.935916,201.012325
4.949032,213.352031
4.962148,226.90263
4.975264,241.827863
4.98838,258.32003
5.001496,276.606158
5.014612,296.95577
5.02117,308.002602
5.027728,319.690745
5.034286,332.070681
5.040844,345.197934
5.047402,359.133679
5.05396,373.945449
5.060518,389.707928
5.069262,412.347793
5.07582,430.666434
5.084564,457.078043
5.091122,478.533198
5.099866,509.597057
5.106424,534.941874
5.115168,571.808287
5.123912,612.645241
5.132656,658.037907
5.137028,682.655022
5.1414,708.681824
5.145772,736.226679
5.150144,765.40841
5.154516,796.357506
5.158888,829.2175
5.16326,864.146529
5.167632,901.319121
5.172004,940.928229
5.176376,983.187559
5.180748,1028.33424
5.187306,1102.0528
5.191678,1155.63794
5.19605,1213.17349
5.200422,1275.04734
5.20698,1376.95899
5.211352,1451.70299
5.213538,1491.32894
5.21791,1575.48971
5.220096,1620.20047
5.224468,1715.36629
5.226654,1766.03409
5.231026,1874.12554
5.233212,1931.8077
5.236491,2023.27461
5.23977,2121.14337
5.243049,2225.99365
5.246328,2338.4677
5.249607,2459.2777
5.252886,2589.2142
5.256165,2729.15527
5.259444,2880.07689
5.263816,3100.27929
5.267095,3281.25388
5.269281,3410.19669
5.271467,3546.29333
5.274746,3764.91364
5.276932,3921.07537
5.279118,4086.22864
5.281304,4260.98207
5.28349,4445.98422
5.285676,4641.92466
5.287862,4849.53447
5.290048,5069.58603
5.292234,5302.89182
5.29442,5550.30195
5.296606,5812.70004
5.298792,6090.99686
5.300978,6386.12134
5.303164,6699.0081
5.306443,7203.65454
5.308629,7564.90801
5.311908,8145.97815
5.315187,8775.89387
5.3189032,9550.17483
5.3215264,10135.0029
5.325024,10961.4066
5.3302704,12285.6319
5.3398888,14813.4116
5.3433864,15677.3789
5.3460096,16270.0881
5.3477584,16629.0655
5.3495072,16952.9387
5.351256,17236.6136
5.3530048,17475.3677
5.3547536,17665.0309
5.3565024,17802.1582
5.3582512,17884.1798
5.36,17909.5181
5.3617488,17877.6624
5.3634976,17789.193
5.3652464,17645.7541
5.3669952,17449.9782
5.368744,17205.3661
5.3704928,16916.1355
5.3722416,16587.0478
5.3739904,16223.2266
5.3766136,15623.9875
5.3801112,14752.7237
5.3897296,12212.6142
5.3932272,11317.654
5.3967248,10465.4693
5.4002224,9664.88308
5.40372,8920.36566
5.406999,8274.46369
5.410278,7678.22548
5.413557,7129.75448
5.415743,6789.37534
5.417929,6468.19492
5.420115,6165.28954
5.422301,5879.71617
5.424487,5610.53143
5.426673,5356.80581
5.428859,5117.63413
5.431045,4892.143
5.433231,4679.49574
5.435417,4478.89561
5.438696,4198.94327
5.440882,4025.24897
5.443068,3861.14205
5.446347,3631.6338
5.448533,3488.91016
5.450719,3353.80445
5.453998,3164.3844
5.45837,2934.25639
5.460556,2827.91927
5.464928,2630.94222
5.467114,2539.67091
5.471486,2370.14291
5.473672,2291.37558
5.478044,2144.68478
5.48023,2076.34731
5.484602,1948.75466
5.488974,1832.16703
5.49116,1777.62573
5.495532,1675.38202
5.499904,1581.46504
5.50209,1537.35966
5.506462,1454.37344
5.510834,1377.77793
5.51302,1341.68012
5.517392,1273.53115
5.521764,1210.35378
5.526136,1151.6891
5.532694,1071.272
5.537066,1022.19684
5.541438,976.385907
5.54581,933.562865
5.550182,893.479465
5.554554,855.912259
5.558926,820.659742
5.563298,787.539875
5.56767,756.387906
5.572042,727.054476
5.5786,686.170797
5.582972,660.816818
5.587344,636.857576
5.596088,592.739719
5.604832,553.129044
5.609204,534.829418
5.617948,500.923541
5.62232,485.204958
5.631064,455.98758
5.635436,442.400399
5.64418,417.072221
5.648552,405.260998
5.65511,388.521092
5.661668,372.86831
5.670412,353.540186
5.674784,344.485463
5.683528,327.492204
5.6879,319.516677
5.701016,297.477008
5.70976,284.212097
5.722876,266.207673
5.733374,253.265058
5.74509535,240.191932
5.75906136,226.319346
5.77161736,215.270858
5.77998803,208.590718
5.79254403,199.524116
5.80091469,194.079555
5.81347069,186.763153
5.82184136,182.430573
5.83439736,176.723133
5.84276802,173.437372
5.85113869,170.565347
5.85950935,168.11035
5.86788002,166.080236
5.87625069,164.48792
5.88462135,163.352048
5.89299202,162.697859
5.90136268,162.558303
5.90973335,162.975479
5.91810402,164.002485
5.92647468,165.705801
5.93484535,168.168381
5.94321601,171.493676
5.95158668,175.810896
5.95577201,178.390568
5.96414268,184.511946
5.97042068,190.058915
5.97669868,196.555365
5.98297668,204.143949
5.98925468,212.996733
5.99553268,223.322172
6.00181068,235.373941
6.00390334,239.82654
6.00808868,249.462106
6.01018134,254.674124
6.01436667,265.967257
6.01645934,272.084177
6.02064467,285.358253
6.02273734,292.559658
6.02692267,308.214296
6.02901534,316.722274
6.03320067,335.25178
6.03529334,345.340937
6.03947867,367.355709
6.04157134,379.364404
6.04575667,405.613741
6.04889567,427.453707
6.05203467,451.347109
6.05517367,477.498031
6.05831267,506.124826
6.06040534,526.698026
6.062498,548.543706
6.06459067,571.732365
6.06668334,596.333688
6.068776,622.414894
6.07086867,650.038614
6.07296134,679.260195
6.075054,710.124354
6.0788208,769.902385
6.08049494,798.214993
6.0838432,857.963589
6.0888656,954.603169
6.10058453,1194.11221
6.1039328,1257.42304
6.10728107,1313.35835
6.1089552,1337.56349
6.11062933,1358.74289
6.11230347,1376.54003
6.1139776,1390.63992
6.11565173,1400.78214
6.11732587,1406.77218
6.119,1408.49031
6.12067413,1405.8972
6.12318533,1394.03996
6.12485947,1381.03074
6.1265336,1364.19836
6.12820773,1343.83482
6.12988187,1320.27991
6.13323013,1265.11283
6.13574133,1218.25718
6.13825253,1168.18391
6.14746026,975.456737
6.15080853,907.529134
6.1541568,842.825049
6.15583093,811.904225
6.1591792,753.180213
6.16085333,725.427653
6.162946,692.261125
6.16503866,660.775803
6.16713133,630.940156
6.169224,602.708079
6.172363,563.240856
6.175502,527.034447
6.178641,493.853155
6.18073366,473.29441
6.18282633,453.903448
6.18596533,426.857961
6.18910433,402.067153
6.19224333,379.325722
6.19538233,358.444117
6.19852133,339.248776
6.20270666,316.007195
6.20479933,305.299855
6.20898466,285.52375
6.21107733,276.387122
6.21526266,259.463976
6.21735533,251.622536
6.22154066,237.056424
6.22363332,230.287356
6.22781866,217.677321
6.23200399,206.186973
6.23409666,200.821896
6.23828199,190.781433
6.24246732,181.577124
6.24455999,177.260247
6.24874532,169.146724
6.25502332,158.144475
6.25920866,151.49763
6.26339399,145.338263
6.26757932,139.619504
6.27385732,131.778022
6.27804265,126.989274
6.28222799,122.515032
6.28641332,118.327708
6.29269132,112.531435
6.29896932,107.253053
6.30733998,100.914988
6.31571065,95.2655505
6.32408132,90.2041924
6.33245198,85.6480672
6.33663732,83.5375208
6.34500798,79.6140379
6.35337865,76.0445942
6.36174931,72.7849603
6.37011998,69.7976856
6.37849065,67.0508943
6.38686131,64.5173209
6.39523198,62.1735343
6.40360264,59.999308
6.41197331,57.9771084
6.42034398,56.0916744
6.43289997,53.4912457
6.44545597,51.1305901
6.45382664,49.6741345
6.47056797,47.0070101
6.4873093,44.6237168
6.50405064,42.480901
6.52079197,40.5435877
6.52916263,39.642878
6.54590397,37.9620189
6.5626453,36.4245812
6.5877573,34.349325
6.60449863,33.0989155
6.62961063,31.3938911
6.64635196,30.3570425
6.66309329,29.3906884
6.68820529,28.0586668
6.70494662,27.240622
6.72587328,26.2881663
6.74679995,25.4059865
6.76772661,24.5870289
6.78865328,23.8252087
6.80957994,23.115248
6.83050661,22.4525453
6.87235994,21.2532772
6.91421327,20.2005665
6.9560666,19.2733428
6.99791993,18.4548474
7.03977326,17.7316072
7.08162659,17.0927001
7.12347992,16.5292178
7.16533325,16.033869
7.20718658,15.6006824
7.24903991,15.2247832
7.29089324,14.9022229
7.33274657,14.6298515
7.3745999,14.4052213
7.41645323,14.2265167
7.45830656,14.092505
7.52108655,13.9739459
7.56775661,13.9499443
7.62423,13.9955404
7.65496,14.0557975
7.7173,14.2589139
7.75886,14.4583499
7.80042,14.7132944
7.84198,15.0284551
7.88354,15.4096329
7.90432,15.6271404
7.94588,16.1211426
7.98744,16.7019755
8.029,17.3813594
8.07056,18.1736633
8.09134,18.6175378
8.12251,19.3501841
8.14329,19.8874908
8.16549673,20.509329
8.18532558,21.1098948
8.20563,21.7732123
8.2368,22.8971076
8.25758,23.7255613
8.27836,24.6248908
8.29914,25.6025368
8.31992,26.6669828
8.3407,27.8279343
8.36148,29.0965351
8.38226,30.4856294
8.40304,32.0100814
8.42382,33.6871671
8.4446,35.537059
8.46538,37.5834268
8.47577,38.6888235
8.490316,40.3380796
8.502784,41.8544141
8.515252,43.4744793
8.536032,46.431373
8.552656,49.0576932
8.560968,50.4681619
8.577592,53.5055691
8.585904,55.1423736
8.602528,58.6801412
8.61084,60.5938031
8.627464,64.7469031
8.639932,68.1797832
8.6524,71.9213975
8.664868,76.0096586
8.677336,80.4884812
8.689804,85.4089549
8.702272,90.8307928
8.71474,96.8241315
8.727208,103.471783
8.739676,110.872069
8.752144,119.142428
8.764612,128.424016
8.772924,135.256456
8.781236,142.672964
8.78747,148.659233
8.793704,155.044522
8.802016,164.24178
8.810328,174.309972
8.81864,185.361724
8.826952,197.528288
8.835264,210.963329
8.843576,225.847613
8.851888,242.39487
8.856044,251.369693
8.8602,260.859162
8.864356,270.902866
8.868512,281.544216
8.872668,292.830886
8.878902,311.087028
8.883058,324.228292
8.887214,338.223238
8.89137,353.146058
8.897604,377.45243
8.902799,399.672817
8.907994,423.905055
8.913189,450.393331
8.918384,479.41888
8.923579,511.306674
8.926696,531.967538
8.929813,553.884919
8.935008,593.483461
8.938125,619.269958
8.941242,646.732506
8.944359,676.013434
8.947476,707.26971
8.950593,740.674654
8.95371,776.419869
8.956827,814.717412
8.959944,855.802229
8.963061,899.934883
8.966178,947.404611
8.969295,998.532713
8.973451,1073.01726
8.976568,1134.14016
8.978646,1177.643
8.980724,1223.52035
8.982802,1271.93092
8.98488,1323.0449
8.986958,1377.04463
8.989036,1434.12531
8.991114,1494.49568
8.993192,1558.37863
8.99527,1626.01168
8.997348,1697.64742
8.999426,1773.55367
9.001504,1854.01341
9.003582,1939.32438
9.00566,2029.79815
9.007738,2125.75864
9.010855,2280.71949
9.012933,2391.87147
9.01605,2571.21972
9.018128,2699.68066
9.021245,2906.47483
9.024362,3130.94423
9.0281024,3424.382
9.0314272,3707.24478
9.034752,4009.78872
9.038908,4411.78343
9.0488824,5420.9657
9.0522072,5737.81236
9.0547008,5955.31082
9.0563632,6087.11667
9.0580256,6206.10623
9.059688,6310.41247
9.0613504,6398.30346
9.0630128,6468.24878
9.0646752,6518.98255
9.0663376,6549.55868
9.06816624,6559.22578
9.0696624,6548.2951
9.0713248,6516.46854
9.0729872,6464.5102
9.0746496,6393.37804
9.076312,6304.34857
9.0779744,6198.96141
9.0796368,6078.95598
9.0812992,5946.20506
9.0837928,5727.43002
9.0871176,5409.15262
9.0962608,4480.47138
9.0995856,4153.08172
9.1029104,3841.26977
9.1062352,3548.2807
9.10956,3275.76463
9.112677,3039.30999
9.115794,2821.00829
9.118911,2620.17192
9.120989,2495.52208
9.123067,2377.89481
9.125145,2266.95312
9.127223,2162.35278
9.129301,2063.74927
9.131379,1970.80304
9.133457,1883.18333
