energy [eV],cross section [b]
1e-05,34.905557
1.05913174e-05,33.9171679
1.14782935e-05,32.5803623
1.23652695e-05,31.3901057
1.30964494e-05,30.5012605
1.38276293e-05,29.6838828
1.49243991e-05,28.572362
1.57420509e-05,27.820435
1.66461745e-05,27.0543653
1.84544217e-05,25.6947473
1.94654702e-05,25.0185492
2.05834434e-05,24.3296329
2.28193899e-05,23.1069464
2.47607805e-05,22.1825978
2.68343866e-05,21.3082966
2.89079926e-05,20.5298418
3.14720624e-05,19.6757805
3.40361322e-05,18.9201454
3.68023592e-05,18.1951961
3.89160534e-05,17.6941691
4.10297477e-05,17.2323754
4.42002891e-05,16.6028259
4.6813929e-05,16.1326987
5.07343889e-05,15.4968472
5.33480288e-05,15.1124675
5.62707668e-05,14.7147589
6.11185211e-05,14.1191369
6.75821935e-05,13.4269825
7.35765724e-05,12.868407
7.95709513e-05,12.3742045
8.60379408e-05,11.9000712
9.34501519e-05,11.4183817
0.000100862363,10.9908174
0.000106388233,10.7015766
0.000112498499,10.4068956
0.000121663897,10.0072258
0.000131551917,9.62378626
0.000139107426,9.35878354
0.000154218442,8.88845753
0.000162667491,8.65454364
0.000172010081,8.4162302
0.000186023966,8.09301053
0.000195366555,7.89713285
0.000206918919,7.67351686
0.000224247465,7.37107414
0.000241576011,7.10178705
0.000263003225,6.80634579
0.00028443044,6.54495264
0.000307547025,6.29417447
0.000325210577,6.12085667
0.000351705905,5.88578926
0.000369369457,5.74333364
0.000391210915,5.58070483
0.000413052373,5.43115218
0.000434893831,5.29301234
0.000456735288,5.16490388
0.00048374284,5.01865394
0.000510750391,4.88416321
0.000537757943,4.75993588
0.000581463277,4.57755288
0.000631556625,4.39226326
0.000681649973,4.22779377
0.000739642272,4.05866903
0.000801584047,3.89870128
0.000863525822,3.75627018
0.000914587605,3.64990724
0.000965649388,3.55209639
0.00104224206,3.41908716
0.00113091222,3.28231315
0.00119405149,3.19435314
0.00132033004,3.03775812
0.00143744015,2.91138436
0.00159358697,2.76507255
0.00168089361,2.69230522
0.00177743349,2.61816925
0.0019222433,2.51762015
0.00207847026,2.42115426
0.00225753149,2.32315101
0.00243659273,2.23615993
0.00257008449,2.17731176
0.00271769386,2.11735675
0.0029391079,2.03604099
0.00317797875,1.9580274
0.0033605017,1.90411065
0.00372554762,1.80841936
0.00392965637,1.76082785
0.00415535093,1.71234122
0.00460674004,1.62628729
0.00485912602,1.58348886
0.00513820342,1.53988547
0.00555681952,1.48074706
0.00600844029,1.42401022
0.00652607038,1.36636917
0.00704370047,1.31520497
0.00742959836,1.28059315
0.0078563074,1.24533033
0.00849637096,1.19750409
0.00918689862,1.15162002
0.00971453585,1.11990863
0.0107698103,1.06362733
0.0113598477,1.03563615
0.0120122854,1.00711849
0.0133171607,0.956505438
0.0140467579,0.931333325
0.0148535147,0.90568776
0.0160636498,0.870905194
0.0173691948,0.837535113
0.0188655595,0.803633209
0.0208607124,0.764236817
0.0219705343,0.744684142
0.0230803562,0.726559277
0.0253,0.693955828
0.0273201264,0.667806339
0.0288454197,0.649910133
0.0318960064,0.618049538
0.0337820727,0.600548532
0.035668139,0.584454687
0.0394402715,0.555802828
0.0429385293,0.53268047
0.0476028729,0.505910063
0.0516527521,0.485671668
0.055978442,0.466529031
0.060304132,0.449484912
0.0656529642,0.430785383
0.0692188523,0.419542133
0.0745676845,0.404214534
0.0789770013,0.392768366
0.0855909765,0.377287296
0.0900002933,0.367928795
0.0949310712,0.358245766
0.10038331,0.348380602
0.105835549,0.339287925
0.111287788,0.330871909
0.117384828,0.322164046
0.127497589,0.309122827
0.14098127,0.293967982
0.153485971,0.281737833
0.165990673,0.270917117
0.179481274,0.260535791
0.194943674,0.249988986
0.210406074,0.240627244
0.221933432,0.234294146
0.234679882,0.227841915
0.253799557,0.219090854
0.266546007,0.213787515
0.282307335,0.207733148
0.298068664,0.202165562
0.313829992,0.197022838
0.329591321,0.192253548
0.349080629,0.186808857
0.368569937,0.181801923
0.388059244,0.177177063
0.419598079,0.170387087
0.45574666,0.163488848
0.491895242,0.157365682
0.533743899,0.151069147
0.578442594,0.145113469
0.623141289,0.139810636
0.659988717,0.135850616
0.696836144,0.13220897
0.752107286,0.127256784
0.793312418,0.123906668
0.838875255,0.120493508
0.93000093,0.114435751
0.980952187,0.111422912
1.03729186,0.108353369
1.14997122,0.102905453
1.24780658,0.0987867406
1.35230487,0.0948909415
1.45680317,0.0914221425
1.58601812,0.0876163413
1.71523308,0.0842490418
1.85463564,0.0810183888
1.96115415,0.0787855582
2.06767267,0.0767275216
2.22745045,0.0739217795
2.35916346,0.0718264733
2.49087648,0.0698995834
2.75430251,0.0664689958
2.91716921,0.0645844868
3.0800359,0.0628514387
3.40576929,0.0597659309
3.70785288,0.0572757209
4.00993646,0.0550723471
4.33583702,0.0529583038
4.70937152,0.0508104034
5.08290601,0.0489036951
5.51534116,0.0469428443
5.82326481,0.0456817087
6.28515028,0.0439665943
6.62192309,0.0428307653
6.98754507,0.041691742
7.53597803,0.040141098
7.96213567,0.0390483679
8.43295059,0.0379386784
9.13917298,0.0364376225
9.6099879,0.0355301
10.136483,0.0345910071
11.009746,0.0331843791
11.883009,0.0319355733
12.8939722,0.0306511627
13.9737855,0.0294360247
15.0535987,0.0283538504
15.9437442,0.0275455494
17.2789624,0.0264520616
18.6141805,0.025478178
19.7148694,0.0247507291
20.8155582,0.0240816192
21.9162471,0.0234634319
23.0169359,0.0228900073
24.3779674,0.0222352172
25.7389988,0.0216329106
27.1000302,0.0210764166
28.4610617,0.0205601944
30.1440137,0.0199706934
32.6684418,0.0191730626
35.1928698,0.0184625266
38.3143932,0.0176825631
41.4359165,0.016992082
44.803548,0.0163292444
47.3767798,0.0158708957
51.2366276,0.0152488917
55.4007947,0.0146517274
58.5826652,0.0142387535
61.7645357,0.0138579135
64.9464062,0.0135052295
68.5045758,0.013140116
72.4390444,0.0127679133
76.3735131,0.0124246455
80.3079817,0.0121067327
84.7077543,0.0117775921
89.5728309,0.0114420358
96.8704457,0.0109865418
104.743421,0.0105490994
113.767119,0.0101042068
122.790816,0.0097088748
133.237412,0.00930190786
140.676109,0.00903993714
151.834154,0.00868337123
164.751651,0.00831631815
173.9498,0.00808005167
183.147949,0.00786166848
192.346098,0.00765902014
203.719857,0.00742753441
215.093616,0.00721453669
226.467375,0.00701769636
237.841134,0.00683507645
258.937074,0.00652865841
273.001033,0.00634437272
287.064993,0.00617379106
311.487438,0.00590553866
337.573136,0.0056519403
363.658833,0.00542635451
395.7599,0.00518034809
422.716924,0.00499617291
449.673949,0.00482920285
476.263951,0.00467900061
516.148954,0.00447663594
542.738957,0.00435485162
572.473585,0.00422937883
621.792466,0.00404271203
654.671721,0.00393104424
687.550975,0.00382819675
759.601394,0.00362906848
833.536034,0.00345560138
913.861331,0.00329539092
977.54735,0.00318549775
1051.26469,0.00307406468
1111.37059,0.00299396253
1203.58666,0.00288707253
1267.80697,0.00282256495
1332.66139,0.00276464977
1413.88794,0.00270122466
1510.85251,0.00263721996
1607.38256,0.00258463241
1680.32325,0.00255147485
1753.26395,0.0025234813
1850.22852,0.00249363422
1947.1931,0.00247155521
2102.73465,0.00245102241
2238.08682,0.00244700898
2335.0514,0.00245164981
2493.33336,0.00247230661
2625.94513,0.00250199767
2771.39199,0.00254772288
2916.83885,0.00260772045
3038.99518,0.0026697528
3159.25029,0.0027419225
3304.69715,0.00284518872
3450.14401,0.00296781499
3595.59087,0.00311231528
3725.17745,0.0032620584
3854.31331,0.0034338632
3983.44917,0.00363165905
4031.93146,0.00371347131
4128.89604,0.00389092621
4177.37832,0.0039871611
4274.3429,0.00419632929
4381.00393,0.0044552862
4439.18268,0.00461095434
4507.05788,0.00480697747
4584.62954,0.00505208005
4646.62031,0.00526596292
4700.98703,0.00546815567
4778.55869,0.00578298982
4856.13035,0.00613276662
4933.70201,0.00652266216
5011.27367,0.00695886423
5069.45241,0.00732082739
5127.63116,0.0077166984
5166.41699,0.00800154371
5205.20282,0.00830479567
5263.38156,0.00879773253
5302.1674,0.00915439451
5340.95322,0.00953589515
5379.73906,0.00994457331
5418.52488,0.0103830503
5457.31071,0.0108542717
5496.09655,0.0113615565
5534.88237,0.0119086549
5573.6682,0.0124998173
5612.45403,0.0131398757
5651.23986,0.0138343415
5690.0257,0.0145895227
5709.41861,0.0149921049
5745.67125,0.0157937364
5786.99027,0.0167934347
5806.38318,0.0172975682
5835.47256,0.018099777
5874.25839,0.0192638738
5893.6513,0.0198905284
5922.74067,0.0208920728
5942.13359,0.0216041819
5971.22296,0.0227453912
5990.61588,0.0235590693
6019.70525,0.0248668876
6039.09816,0.025802183
6068.18754,0.0273102838
6087.58045,0.0283923679
6116.66982,0.030143236
6136.06274,0.0314040239
6165.15211,0.0334518084
6194.24148,0.0357100257
6223.33086,0.0382079542
6252.42023,0.0409800138
6281.5096,0.0440668522
6310.59897,0.0475166969
6320.29543,0.0487569458
6339.68835,0.0513870442
6349.3848,0.052782135
6368.77772,0.0557467788
6388.17063,0.0589654351
6407.56355,0.0624668194
6426.95646,0.0662836094
6441.50115,0.0693754134
6456.04584,0.0726831366
6475.43875,0.0774633615
6489.98344,0.0813545147
6509.37635,0.086997936
6528.76927,0.0932231271
6548.16218,0.100106659
6567.5551,0.107736679
6577.25156,0.111862758
6591.79624,0.118479941
6601.4927,0.123199143
6611.18916,0.12818387
6620.88561,0.133451992
6635.4303,0.14192765
6645.12676,0.147990578
6654.82322,0.15440937
6664.51967,0.161207718
6679.06436,0.172172029
6688.76082,0.180031634
6703.3055,0.192716472
6713.00196,0.201812817
6727.54665,0.216492476
6742.09133,0.232505374
6756.63602,0.24995068
6771.18071,0.268917876
6780.87716,0.282444186
6790.57362,0.296692744
6807.0576,0.32258349
6826.45051,0.355654531
6849.72201,0.398591679
6900.14359,0.49632457
6915.65792,0.524169039
6927.29367,0.543040433
6935.05084,0.554337031
6942.808,0.5644047
6950.56517,0.573079821
6958.32234,0.580213363
6966.0795,0.585676786
6973.83667,0.589367497
6981.59383,0.591213439
6987.02385,0.591386096
6993.22958,0.59044968
7000.98675,0.587594995
7008.74392,0.582918207
7016.50108,0.576503271
7024.25825,0.568463368
7032.01541,0.558935981
7039.77258,0.54807723
7047.52974,0.536055873
7059.16549,0.516228216
7074.67983,0.487356115
7121.22282,0.395468517
7136.73715,0.366039171
7152.25149,0.33811766
7167.76582,0.311962087
7183.28015,0.287694115
7197.82484,0.266678287
7212.36952,0.247305673
7226.91421,0.229505624
7241.45889,0.213186649
7251.15535,0.203079803
7265.70004,0.188999565
7275.3965,0.180286803
7285.09295,0.172077228
7294.78941,0.164340936
7304.48587,0.157049168
7314.18233,0.150174443
7323.87878,0.143690652
7333.57524,0.137573091
7343.2717,0.131798471
7352.96816,0.126344898
7362.66461,0.12119184
7372.36107,0.116320073
7386.90576,0.109500869
7396.60221,0.105256315
7406.29867,0.10123524
7420.84336,0.0955921172
7435.38804,0.0903768489
7454.78096,0.0840216939
7474.17387,0.0782761814
7483.87033,0.0756094526
7503.26325,0.0706481416
7512.9597,0.068339197
7532.35262,0.064032371
7542.04908,0.0620228224
7561.44199,0.0582651137
7571.13845,0.0565074353
7590.53136,0.0532128916
7600.22782,0.0516682241
7619.62074,0.0487663992
7639.01365,0.0460934904
7648.71011,0.0448356835
7668.10302,0.0424644622
7687.49594,0.0402703074
7697.1924,0.0392343358
7716.58531,0.0372750647
7735.97823,0.0354545401
7755.37114,0.0337602979
7784.46051,0.0314316921
7803.85343,0.0300069862
7823.24634,0.0286744288
7842.63926,0.0274264118
7862.03217,0.026256081
7881.42509,0.0251572499
7900.818,0.0241243245
7920.21092,0.0231522378
7939.60383,0.0222363926
7958.99675,0.0213726105
7978.38966,0.0205570883
7997.78258,0.0197863583
8017.17549,0.0190572545
8036.56841,0.0183668816
8075.35424,0.0170919434
8114.14007,0.0159428481
8133.53298,0.0154104551
8172.31882,0.014421255
8191.71173,0.0139613545
8230.49756,0.0131040719
8249.89048,0.0127042373
8288.67631,0.0119566995
8308.06922,0.011607033
8346.85505,0.010951496
8366.24796,0.0106440397
8405.03379,0.0100661759
8424.42671,0.00979447667
8463.21254,0.00928262004
8482.60546,0.00904140255
8540.7842,0.0083709005
8579.57003,0.00796400294
8637.74878,0.00740650113
8676.53461,0.00706638836
8734.71335,0.00659809645
8773.49918,0.00631105592
8818.09794,0.00600335945
8870.46376,0.00566973616
8928.6425,0.00533045623
8967.42833,0.0051208058
9006.21416,0.00492321619
9044.99999,0.00473679002
9083.78582,0.0045607113
9122.57165,0.00439423675
9200.14331,0.00408744593
9277.71497,0.00381165859
9355.28663,0.00356287711
9432.85829,0.00333772422
9510.42995,0.00313333145
9597.69807,0.00292516959
9665.57327,0.00277738037
9752.84139,0.00260341167
9801.32367,0.002513814
9898.28825,0.00234812951
9946.77054,0.00227145446
10043.7351,0.00212914113
10140.6997,0.00200004329
10189.182,0.00193995092
10286.1465,0.00182780802
10383.1111,0.00172536965
10431.5934,0.00167744799
10528.558,0.00158759771
10625.5226,0.00150502844
10721.2646,0.00142990557
10863.0439,0.00132900971
10964.8986,0.00126328576
11061.8631,0.00120538322
11158.8277,0.00115160055
11255.7923,0.0011015622
11352.7569,0.00105493429
11449.7214,0.00101141915
11546.686,0.000970750772
11643.6506,0.00093269084
11740.6152,0.000897025383
11837.5798,0.000863561854
11934.5443,0.000832126618
12031.5089,0.00080256278
12128.4735,0.000774728294
12322.4026,0.000723743774
12516.3318,0.000678276099
12613.2964,0.000657373057
12807.2255,0.000618821971
13001.1547,0.000584145322
13195.0838,0.000552860917
13313.7652,0.000535210327
13507.6943,0.000508559478
13679.9067,0.000486952809
13873.8358,0.00046469156
13970.8004,0.000454311117
14261.6941,0.00042585534
14552.5878,0.000400956602
14746.517,0.000386076954
14940.4461,0.000372421121
15231.3399,0.000353990123
15522.2336,0.000337738986
15813.1273,0.000323398522
16104.021,0.000310744233
16453.7662,0.000297498891
16685.8085,0.000289772809
17073.6668,0.000278545027
17267.5959,0.000273654827
17655.4542,0.000265187284
17849.3834,0.00026156504
18237.2417,0.000255450475
18431.1708,0.000252927678
18819.0291,0.000248889813
19144.4719,0.000246493972
19452.3077,0.000245030715
19834.3884,0.000244276668
20245.9052,0.000244771014
20538.1961,0.000245952778
20863.1806,0.000248096753
21274.6975,0.000252117142
21686.2144,0.000257689917
22097.7313,0.000264954363
22303.4898,0.000269277471
22715.0066,0.000279449537
23023.6443,0.000288554591
23229.4028,0.000295407803
23435.1612,0.000302947246
23743.7989,0.000315674996
24052.4366,0.000330318918
24361.0742,0.000347169203
24669.7119,0.000366583349
24875.4704,0.000381165207
25081.2288,0.000397238868
25184.108,0.000405891311
25389.8665,0.000424556203
25497.3706,0.000435091709
25700.0458,0.000456579863
25842.5351,0.000473086895
25965.9902,0.000488423188
26151.1728,0.000513420478
26295.2037,0.000534698636
26459.8104,0.000561228769
26624.4172,0.000590410798
26789.024,0.000622600068
26953.6307,0.00065821481
27118.2375,0.000697749972
27282.8442,0.000741794768
27447.451,0.000791055068
27612.0578,0.000846382266
27694.3611,0.000876635818
27776.6645,0.000908810819
27858.9679,0.000943073261
27941.2713,0.000979607578
28023.5747,0.00101861917
28105.878,0.00106033731
28188.1814,0.00110501857
28270.4848,0.00115295078
28352.7882,0.00120445772
28435.0916,0.00125990463
28517.3949,0.00131970469
28640.85,0.00141861015
28723.1534,0.00149148953
28805.4568,0.00157067198
28887.7602,0.00165690695
28928.9118,0.00170293409
29011.2152,0.00180140931
29093.5186,0.00190936001
29134.6703,0.00196727305
29216.9737,0.00209185564
29299.277,0.00222946593
29340.4287,0.00230373016
29422.7321,0.00246450618
29463.8838,0.00255162305
29525.6113,0.00269167065
29587.3389,0.00284413931
29649.0664,0.00301053095
29710.7939,0.00319257809
29772.5215,0.0033922868
29834.249,0.00361198902
29895.9766,0.00385440662
29957.7041,0.00412273011
30019.4316,0.0044207159
30081.1592,0.00475280701
30122.3108,0.00499571607
30163.4625,0.00525791729
30194.3263,0.00546844622
30235.478,0.00576947612
30266.3418,0.00601187595
30307.4935,0.00635951319
30338.3572,0.00664029875
30379.5089,0.00704426658
30410.3727,0.00737160883
30451.5244,0.00784414307
30492.6761,0.00836256892
30533.8278,0.00893267105
30574.9794,0.00956109694
30616.1311,0.010255495
30657.2828,0.0110246724
30677.8587,0.0114404156
30708.7224,0.0121068975
30729.2983,0.0125820362
30749.8741,0.0130837653
30770.45,0.0136138772
30801.3137,0.0144664918
30821.8896,0.0150762348
30842.4654,0.0157216527
30863.0413,0.0164051398
30893.905,0.0175073384
30914.4809,0.0182974058
30945.3446,0.0195726081
30976.2084,0.0209650508
31007.0722,0.0224853869
31037.936,0.0241444366
31068.7997,0.025952757
31099.6635,0.0279199999
31120.2393,0.0293237613
31140.8152,0.0308033151
31175.7941,0.0334942523
31192.2548,0.0348363599
31216.9458,0.0369368932
31241.6368,0.0391349801
31266.3278,0.0414178876
31373.3222,0.0516914527
31402.8793,0.0543600033
31430.9346,0.0566706871
31447.3953,0.0578888507
31463.8559,0.0589828119
31480.3166,0.0599351823
31496.7773,0.0607299609
31513.238,0.0613531563
31529.6986,0.061793371
31546.1593,0.0620423041
31557.6818,0.0621000145
31570.8503,0.0620475113
31587.311,0.0618052674
31603.7717,0.0613711487
31620.2324,0.0607531597
31636.693,0.0599624534
31653.1537,0.0590128408
31669.6144,0.0579202126
31694.3054,0.0560513108
31718.9964,0.053961301
31743.6874,0.0517115689
31842.4515,0.042173368
31875.3728,0.0390992313
31908.2942,0.0361767737
31941.2155,0.0334349596
31974.1369,0.0308880757
32005.0007,0.0286806724
32035.8644,0.0266447089
32056.4403,0.0253793624
32077.0161,0.0241845466
32097.592,0.0230572959
32118.1678,0.0219944569
32138.7437,0.0209927825
32159.3195,0.0200490033
32179.8953,0.0191598829
32200.4712,0.018322258
32221.047,0.0175330676
32241.6229,0.0167893733
32262.1987,0.0160883714
32282.7746,0.0154274013
32303.3504,0.0148039479
32323.9263,0.0142156417
32344.5021,0.0136602567
32375.3659,0.0128843785
32395.9417,0.0124024584
32416.5176,0.0119467288
32447.3813,0.0113086737
32488.533,0.0105351625
32509.1089,0.0101784814
32550.2606,0.00951928413
32570.8364,0.00921461878
32611.9881,0.0086503263
32632.5639,0.0083889644
32673.7156,0.0079039089
32694.2915,0.00767881244
32735.4432,0.0072603239
32756.019,0.00706579427
32797.1707,0.0067035995
32817.7465,0.00653500911
32858.8982,0.00622075311
32879.4741,0.00607433272
32920.6258,0.00580120065
32941.2016,0.00567387177
32982.3533,0.00543629161
33044.0808,0.00511894406
33105.8084,0.00484335846
33167.5359,0.00460479373
33208.6876,0.00446438088
33270.4151,0.00427932043
33311.5668,0.00417183468
33373.2944,0.00403283188
33421.436,0.00394197225
33482.7099,0.00384754036
33515.553,0.00380643307
33581.239,0.00374377564
33614.082,0.00372219135
33679.7681,0.00369871778
33712.6111,0.00369703414
33778.2971,0.00371462432
33827.5617,0.00374714636
33876.8262,0.00379750644
33909.6692,0.00384172116
33942.5122,0.00389507473
33975.3552,0.00395820522
34008.1983,0.00403185495
34041.0413,0.00411688582
34073.8843,0.00421429776
34106.7273,0.00432525089
34155.9918,0.00452007609
34188.8349,0.00467126646
34221.6779,0.00484176198
34254.5209,0.00503387087
34287.3639,0.00525030305
34320.2069,0.0054942519
34353.05,0.00576949638
34385.893,0.00608052889
34418.736,0.0064327168
34451.579,0.00683250768
34468.0005,0.00705262763
34484.4221,0.00728769193
34500.8436,0.00753893971
34525.4758,0.00794919378
34541.8973,0.00824722632
34558.3188,0.00856693052
34574.7404,0.00891028544
34599.3726,0.00947456165
34615.7941,0.00988727836
34640.4264,0.0105684769
34656.8479,0.0110689662
34681.4802,0.011899074
34697.9017,0.0125120772
34706.1124,0.0128384027
34722.5339,0.0135343771
34738.9555,0.0142936028
34747.1662,0.0146992044
34763.5877,0.0155674799
34771.7985,0.0160324067
34788.22,0.0170300755
34796.4307,0.0175655814
34812.8522,0.0187176033
34821.063,0.0193375231
34837.4845,0.0206746385
34845.6953,0.0213960379
34862.1168,0.0229562116
34874.4329,0.0242393732
34886.749,0.0256303552
34899.0652,0.0271401825
34911.3813,0.0287810819
34923.6974,0.0305665829
34931.9082,0.0318445609
34940.119,0.0331981896
34952.4351,0.0353816637
34960.6458,0.0369472762
34968.8566,0.0386075916
34981.1727,0.0412889869
34989.3835,0.0432131456
34997.5942,0.0452542073
35005.805,0.0474188385
35014.0157,0.0497136884
35022.2265,0.0521452505
35030.4373,0.0547196841
35038.648,0.0574425852
35050.9641,0.0618153769
35062.4592,0.0662167941
35075.5964,0.0716266193
35085.4493,0.0759413744
35095.3022,0.0804604062
35111.7237,0.0883720116
35147.8511,0.106377602
35160.9883,0.112524128
35170.8412,0.116736762
35177.4098,0.119285784
35183.9784,0.121583312
