energy [eV],cross section [b]
1e-05,965.559937
1.09650909e-05,922.089598
1.19301818e-05,884.007019
1.29780638e-05,847.567498
1.378704e-05,822.32545
1.45960162e-05,799.212159
1.58094805e-05,767.927915
1.68266529e-05,744.35548
1.83524114e-05,712.742562
1.93695838e-05,693.775758
2.05176447e-05,674.086325
2.1796594e-05,654.010852
2.30755434e-05,635.628421
2.43544928e-05,618.713704
2.57980158e-05,601.154541
2.82101608e-05,574.879088
3.06223058e-05,551.772885
3.34483066e-05,527.949326
3.64812354e-05,505.527223
3.95141641e-05,485.738945
4.20564814e-05,470.828632
4.58699574e-05,450.832458
4.84122747e-05,438.835353
5.12817342e-05,426.381162
5.44783361e-05,413.682789
5.7674938e-05,402.055319
6.08715399e-05,391.356224
6.44794766e-05,380.249497
7.0508384e-05,363.629441
7.45276555e-05,353.688306
7.85469271e-05,344.520321
8.61274194e-05,329.009735
9.37079117e-05,315.421548
0.000101938703,302.419619
0.000111470092,289.201381
0.000121001482,277.57748
0.0001281734,269.699811
0.000136162976,261.66769
0.00014814734,250.860755
0.000156136917,244.358179
0.000166182671,236.857337
0.000176228425,230.007374
0.00018627418,223.719295
0.000196319934,217.920257
0.000208951039,211.23096
0.000227897697,202.259966
0.000246844355,194.342756
0.000270667078,185.593308
0.000294489801,177.928277
0.000320356178,170.593952
0.000340325299,165.513387
0.00037027898,158.677667
0.000402802264,152.136872
0.00042791059,147.605994
0.000453018915,143.457224
0.000478127241,139.639705
0.000506466475,135.676741
0.000538036618,131.636078
0.000585391833,126.19951
0.000616961976,122.928305
0.000656656934,119.154912
0.000716199372,114.094427
0.000775741809,109.628377
0.000850607944,104.692868
0.000925474078,100.369073
0.00100676267,96.2318296
0.00106951833,93.3659179
0.00116365184,89.5099365
0.0012264075,87.1897782
0.00130531382,84.5134339
0.00138422013,82.0693283
0.00146312644,79.8257069
0.00154203275,77.7565793
0.0016412462,75.3698039
0.00174045965,73.1901401
0.0018396731,71.1892694
0.00200125994,68.2548651
0.00218838012,65.2716456
0.00237550029,62.6482547
0.00259472499,59.9434219
0.00283000195,57.397709
0.00306527892,55.1510333
0.0032624971,53.4581833
0.00345971528,51.9122309
0.00375554255,49.8258187
0.00397813853,48.4118328
0.0042261123,46.9701261
0.00447408608,45.6500064
0.00472205985,44.4352915
0.00500194259,43.1742988
0.00531373429,41.8885851
0.00578142184,40.1587075
0.00628923036,38.5034705
0.00687728084,36.8207023
0.00746533132,35.3409098
0.00815427463,33.8151824
0.00864720111,32.8373535
0.00938659083,31.5176824
0.0102528389,30.1570485
0.0108726238,29.2850278
0.0114924086,28.4845401
0.0121121934,27.7463118
0.0128914846,26.894756
0.0136707758,26.1170974
0.0144500669,25.403232
0.0152293581,24.7448895
0.0166991295,23.631101
0.018168901,22.6553668
0.019764758,21.7217405
0.0216127863,20.7725934
0.0234608146,19.93794
0.0253,19.199825
0.0277865884,18.3209346
0.0290298826,17.9244754
0.0312470557,17.2771226
0.0331948135,16.7628126
0.0361164502,16.0708384
0.038064208,15.6544821
0.040513236,15.1742149
0.042962264,14.7356302
0.045411292,14.3330283
0.0493999719,13.7426
0.0540189277,13.1423674
0.0586378835,12.6145501
0.0640493215,12.0703657
0.0698570006,11.5582144
0.0756646796,11.106242
0.0805328991,10.7656974
0.0854011186,10.4547141
0.0927034478,10.0350295
0.10125865,9.60233996
0.107379743,9.32504551
0.113500835,9.07050793
0.119621928,8.83577677
0.131166531,8.43867867
0.138862933,8.20194191
0.146559335,7.98411906
0.160084666,7.64013215
0.17460036,7.31641344
0.189116054,7.0307504
0.207367472,6.71509625
0.219535084,6.52692138
0.237786501,6.27225116
0.25308554,6.08038247
0.276034099,5.82310331
0.298982657,5.59608331
0.318219019,5.42505173
0.337455382,5.26888305
0.356691744,5.12554445
0.375928106,4.99337217
0.400115092,4.84093299
0.436395571,4.63654196
0.472676049,4.45620756
0.518293584,4.25697617
0.563911118,4.08249602
0.613441991,3.91560193
0.651680359,3.80003005
0.709037911,3.64458651
0.77131593,3.49591511
0.819395232,3.39297109
0.867474533,3.29874236
0.939593485,3.17125873
1.00004636,3.07524845
1.06049923,2.98760902
1.12095211,2.90719487
1.18140498,2.83306847
1.2954213,2.70774154
1.37143217,2.63307476
1.44744305,2.56440934
1.58102134,2.45605034
1.72438062,2.35417403
1.8677399,2.26436432
1.98790915,2.19676295
2.16816302,2.1062088
2.3484169,2.02640524
2.49951261,1.96635329
2.65060833,1.91157862
2.8772519,1.83776663
3.04779043,1.7878245
3.23777177,1.73697841
3.42775311,1.69049357
3.61773445,1.64778806
3.9515996,1.58048979
4.30991131,1.51733759
4.76167851,1.44835419
5.10875689,1.40186061
5.61600266,1.34205885
6.05844962,1.29635454
6.62492182,1.24490627
7.19139403,1.19991078
7.61763747,1.16956709
8.09247621,1.13876916
8.80473433,1.09758448
9.27957307,1.0729609
9.87661516,1.04472291
10.4736573,1.01910786
11.0706993,0.99575578
11.6677414,0.974372314
12.4184368,0.949908525
13.1691322,0.927779346
13.9198276,0.907664964
15.26168,0.875936331
16.8538865,0.844010255
18.4460931,0.816999667
20.2263087,0.791410286
22.0065243,0.769729033
23.8120575,0.750979482
25.668226,0.73450834
27.4152705,0.721183234
29.1623149,0.709656876
30.8904292,0.699787031
34.3466577,0.683892901
37.8470383,0.672103344
40.2062002,0.666187463
42.5653621,0.661688162
46.481318,0.656970787
51.684591,0.65531395
56.887864,0.658242685
62.091137,0.665306679
67.29441,0.676272671
72.888195,0.69233683
79.0017742,0.715066081
84.2050472,0.738904037
88.9922574,0.764782189
94.6115932,0.800479844
99.8148662,0.839288089
102.416503,0.861009955
106.318957,0.896813656
108.920594,0.923027658
111.52223,0.951298322
114.123867,0.981802901
116.725504,1.01474152
119.32714,1.05034047
121.928776,1.08885617
125.180822,1.14154979
128.432868,1.1999178
130.384095,1.23798052
132.985732,1.29267565
134.936959,1.3369376
137.538595,1.40074335
139.489823,1.45255354
142.091459,1.52751677
144.888393,1.6165309
146.644323,1.6774219
148.595551,1.75013529
151.197187,1.85631156
153.798824,1.97446905
156.40046,2.10646496
158.351687,2.21587166
159.652506,2.29437021
160.953324,2.37774691
162.254142,2.46641406
163.55496,2.56082881
164.855779,2.6614991
166.156597,2.76899066
168.107824,2.94441973
169.408643,3.07189518
170.709461,3.20875632
172.010279,3.35595076
173.311097,3.51454939
174.611916,3.68576611
175.912734,3.87098142
177.213552,4.07177068
178.51437,4.28993804
179.815189,4.52755756
181.116007,4.78702318
181.971467,4.9708854
182.724401,5.14222203
183.272285,5.27289271
184.368052,5.55061925
185.668871,5.91162647
186.31928,6.10626797
187.294894,6.41780661
188.595712,6.87382786
189.246121,7.12123775
190.221735,7.51944506
190.872144,7.80465442
191.522553,8.10714801
192.172962,8.42835538
193.148576,8.94875815
193.798985,9.32404356
194.774598,9.93462778
195.425008,10.3768797
196.400621,11.0998011
197.376235,11.903659
198.156726,12.6133822
198.937217,13.3904688
199.457544,13.9502416
199.977871,14.5468009
200.758362,15.5179235
201.27869,16.2217006
201.799017,16.9755587
202.319344,17.7843583
202.839672,18.6535616
203.359999,19.5893241
203.880326,20.5986016
204.400654,21.6892784
204.920981,22.8703182
205.441308,24.1519458
205.961635,25.5458643
206.481963,27.0655166
207.00229,28.7264028
207.522617,30.5464658
208.042945,32.5465634
208.563272,34.7510488
208.823436,35.9386764
209.213681,37.8380666
209.734008,40.6147539
209.994172,42.1193118
210.384417,44.5379075
210.644581,46.26781
211.034827,49.0575094
211.29499,51.0593909
211.685236,54.2988836
211.945399,56.63184
212.335645,60.421358
212.72589,64.6006093
213.116136,69.2237186
213.506381,74.3542757
213.896627,80.0673229
214.286872,86.4518233
214.416954,88.7469576
214.677118,93.6137406
214.8072,96.1950374
215.067363,101.679895
215.327527,107.633771
215.58769,114.109414
215.717772,117.561326
215.977936,124.934617
216.2381,132.995651
216.498263,141.827804
216.758427,151.526506
217.018591,162.201153
217.278754,173.977302
217.538918,186.99918
217.799082,201.432497
217.929163,209.236862
218.059245,217.467545
218.189327,226.152716
218.319409,235.322497
218.449491,245.009065
218.579572,255.246743
218.709654,266.072082
218.839736,277.523925
218.969818,289.643442
219.164941,309.170388
219.295023,323.15436
219.490145,345.701689
219.685268,370.288738
219.880391,397.094177
220.075513,426.297642
220.270636,458.071945
220.465759,492.571666
220.595841,517.147021
220.725923,543.011116
220.921045,584.236666
221.181209,643.619623
221.441373,707.537085
222.221864,910.762442
222.416986,957.868301
222.547068,986.657392
222.742191,1024.43917
222.872273,1045.18051
222.976338,1058.79002
223.080404,1069.49383
223.184469,1077.10244
223.288535,1081.47687
223.3926,1082.53485
223.496665,1080.25456
223.600731,1074.67568
223.704796,1065.89757
223.808862,1054.07488
223.912927,1039.41081
224.043009,1017.45861
224.238132,978.114905
224.368214,948.465483
224.563336,900.341315
225.083664,763.107457
225.343827,695.731039
225.603991,631.989193
225.734073,601.839496
225.929196,558.98339
226.124318,519.062907
226.319441,482.079811
226.449523,459.019972
226.579605,437.194742
226.709687,416.559711
226.904809,387.729946
227.034891,369.848225
227.164973,352.973787
227.360096,329.432434
227.490177,314.84109
227.620259,301.072235
227.815382,281.854307
228.010505,264.220657
228.205628,248.026759
228.40075,233.140092
228.595873,219.43985
228.828448,204.508128
228.944735,197.563337
229.088611,189.414157
229.246282,181.00957
229.506446,168.239855
229.636528,162.324588
229.896691,151.341045
230.026773,146.239569
230.286937,136.742397
230.5471,128.097853
230.677182,124.0654
230.937346,116.527017
231.197509,109.627675
231.457673,103.300024
231.717837,97.4849663
231.978,92.1305347
232.238164,87.1909359
232.498328,82.6257288
232.758491,78.3991218
233.018655,74.4793686
233.408901,69.1142172
233.669064,65.8447829
233.929228,62.7961027
234.319473,58.5959899
234.579637,56.020311
234.839801,53.6069636
235.230046,50.2630138
235.49021,48.2009311
235.750373,46.2605885
236.140619,43.5583674
236.530864,41.0817802
236.92111,38.8067584
237.441437,36.0510563
237.701601,34.7800942
238.221928,32.4285754
238.482092,31.3397901
239.002419,29.3179857
239.262583,28.3785286
239.78291,26.6282016
240.303237,25.0326605
240.563401,24.2873546
241.083728,22.891866
241.604055,21.6116795
241.864219,21.0109347
242.384546,19.8812482
242.904874,18.839129
243.425201,17.8758352
244.205692,16.5621328
244.726019,15.7642319
245.246347,15.0219637
245.766674,14.3303161
246.287001,13.6848259
246.807328,13.0815082
247.327656,12.5167968
247.847983,11.9874926
248.36831,11.4907193
248.888638,11.0238853
249.73417,10.3231955
250.709783,9.59390319
251.685397,8.93858636
252.661011,8.34763888
253.31142,7.98538015
254.287033,7.48432646
254.937443,7.17584901
255.913056,6.74745997
256.563465,6.48269306
257.539079,6.11366283
258.189488,5.88477858
258.839897,5.66844497
259.490306,5.46376825
260.46592,5.17684435
261.116329,4.99789116
262.417147,4.66665951
263.717966,4.3672296
265.018784,4.09568951
266.319602,3.84870865
267.62042,3.62343735
268.921239,3.41742605
270.222057,3.2285599
271.522875,3.05500549
272.173284,2.97346328
273.474103,2.81994889
274.774921,2.67812591
276.726148,2.48484498
278.026967,2.36753222
279.327785,2.25845775
281.279012,2.10868644
283.230239,1.97361594
285.181467,1.85140661
286.921743,1.75198492
289.083922,1.63955384
291.035149,1.54743535
292.986376,1.46315732
294.937604,1.38586865
296.238422,1.3378568
298.840058,1.24939787
300.140877,1.20860942
302.742513,1.1331653
304.043332,1.09824599
306.644968,1.03343052
307.945786,1.0033282
310.547423,0.947276403
313.149059,0.896228092
314.449877,0.872401507
317.051514,0.827829302
319.65315,0.786995506
320.953969,0.767855781
323.555605,0.731909523
327.45806,0.683242276
330.059696,0.65390204
332.661333,0.626770446
335.262969,0.601642575
339.165424,0.567316104
341.767061,0.546446548
344.368697,0.527027959
346.970334,0.508938867
349.57197,0.492070405
352.173607,0.476324783
354.775243,0.461613977
357.37688,0.4478586
360.405638,0.432953595
363.007274,0.421029293
366.482607,0.40626238
369.084244,0.396010308
374.287517,0.377368863
379.49079,0.36094678
384.694063,0.346472694
389.897336,0.333718811
395.100609,0.322493132
400.303882,0.312633272
405.507155,0.304001526
410.710428,0.29648089
415.913701,0.289971856
421.116974,0.284389799
426.320247,0.279662855
431.52352,0.275730186
436.726793,0.272540561
444.531702,0.269057814
452.336612,0.267038842
459.037276,0.266410958
467.946431,0.267096986
475.659328,0.269064307
483.1882,0.272210986
492.474483,0.277791038
501.760765,0.285324569
509.694804,0.293406338
518.410723,0.304176233
525.298424,0.314215384
533.461626,0.328047588
537.88336,0.336500639
542.305094,0.345690024
547.407095,0.357280818
550.893462,0.365856909
554.464863,0.375235705
559.481831,0.389504705
564.413765,0.404891888
567.815099,0.416362807
572.514374,0.433474377
576.318434,0.44849598
579.719768,0.462895327
583.121102,0.478285816
586.522436,0.494750216
591.624437,0.521664824
595.025771,0.541240788
598.427105,0.562263013
601.828439,0.584867918
606.93044,0.622083718
610.331774,0.649360299
613.733108,0.678849184
617.134442,0.710787076
618.835109,0.727757273
622.236443,0.763886418
625.637777,0.803213873
627.338444,0.824193559
630.739778,0.86904904
634.141112,0.918166598
635.841779,0.944491782
638.817946,0.99368603
642.644447,1.06343964
645.195448,1.11452448
647.746448,1.1697323
649.021948,1.19902134
651.572949,1.26128153
654.123949,1.32891919
656.67495,1.40256835
658.800783,1.46905851
661.351784,1.55570811
663.052451,1.61807294
665.603451,1.71932299
668.154452,1.83093302
670.705453,1.95436169
673.256453,2.09133353
675.807454,2.24389907
678.358454,2.41451147
679.208787,2.47588658
680.909455,2.60612485
681.759788,2.67526101
683.460455,2.82232174
685.161122,2.98223339
686.861789,3.15653274
687.712122,3.24962137
689.412789,3.44891146
691.113456,3.6675629
692.814124,3.90815534
694.51479,4.17371013
695.790291,4.39137389
697.065791,4.62680072
698.766458,4.9717857
699.616791,5.15911895
700.467125,5.35736536
701.317458,5.56738262
702.167792,5.79011357
703.018125,6.02659637
703.868459,6.27797624
704.718793,6.54551878
705.569126,6.83062529
706.419459,7.13485033
707.269793,7.45992205
708.120126,7.80776557
709.395627,8.37699828
710.24596,8.79174303
711.52146,9.4739017
712.371794,9.97354215
712.796961,10.238227
713.647294,10.7999736
714.072461,11.0981993
714.922795,11.7325613
715.985711,12.6040773
717.048628,13.5749979
717.473795,13.9945301
718.324129,14.893035
718.749295,15.3744627
719.514871,16.3009372
720.024795,16.9642035
720.875129,18.1614599
721.300296,18.806871
721.938046,19.8394767
722.575796,20.956683
723.213546,22.1675526
723.851296,23.4823204
724.276463,24.4222103
724.70163,25.4171939
725.33938,27.0221148
725.764547,28.1737315
726.189713,29.3965877
726.827464,31.3767668
727.25263,32.8031986
727.677797,34.3226551
728.102964,35.9426642
728.52813,37.6714274
728.953297,39.5178749
729.378464,41.4917212
729.803631,43.6035216
730.228797,45.8647236
730.653964,48.2877147
731.079131,50.8858579
731.674364,54.8450431
732.099531,57.9240177
732.609731,61.9211864
733.119931,66.2769246
733.630131,71.0227071
733.970265,74.4189918
734.310398,78.01207
734.650532,81.8108235
734.990665,85.8234517
735.330799,90.0571091
735.670932,94.5174598
736.011065,99.2081344
736.351199,104.130082
736.691332,109.280805
737.031465,114.653488
737.371599,120.236005
737.881799,128.960715
739.837566,164.042236
740.347766,172.599721
740.857966,180.323989
741.1981,184.836577
741.4532,187.813248
741.7083,190.395012
741.9634,192.544927
742.235507,194.326223
742.4736,195.427249
742.7287,196.114812
742.973596,196.285869
743.255907,195.885297
743.528013,194.900222
743.80012,193.344631
744.089234,191.097078
744.344334,188.638528
744.599434,185.770982
744.854534,182.533937
745.194667,177.716681
745.619834,171.037142
746.130034,162.325243
747.575601,136.1153
748.255868,124.112671
748.766068,115.552132
749.276268,107.458009
749.786468,99.8719917
750.296668,92.8098366
750.806868,86.2685073
751.147002,82.1894665
751.487135,78.3280244
751.827268,74.6760781
752.167402,71.224756
752.507535,67.9647272
752.847669,64.886445
753.187802,61.9803355
753.527935,59.2369416
753.868069,56.6470289
754.293236,53.6118929
754.548336,51.8922621
755.101052,48.4085196
755.738803,44.7654708
756.163969,42.5394112
756.801719,39.4735113
757.226886,37.5954656
757.864636,35.0021179
758.289803,33.4091877
758.927553,31.203438
759.35272,29.8447352
759.777887,28.5677525
760.203053,27.3664896
760.840803,25.6946546
761.26597,24.6595912
761.691137,23.6828811
762.116304,22.7604417
762.54147,21.8885201
762.966637,21.0636636
763.391804,20.282694
763.816971,19.5426831
764.667304,18.1749482
765.517638,16.9412607
766.367971,15.825224
767.218305,14.812788
768.068638,13.8918729
768.493805,13.4624219
769.344138,12.6596973
769.981889,12.1027158
770.619639,11.5808478
771.469972,10.934802
772.320306,10.3402313
772.745473,10.0605918
773.595806,9.53364646
774.020973,9.28526542
775.296473,8.59470175
776.571973,7.97717323
777.847473,7.42288266
779.122974,6.92359974
780.398474,6.47237376
781.248807,6.19530388
782.524308,5.81149765
783.374641,5.57486821
784.650142,5.24582834
785.500475,5.04221404
786.775975,4.75809552
787.626309,4.58168557
788.901809,4.33474198
789.752142,4.18093979
791.45281,3.89671175
793.153476,3.64029184
794.854143,3.40819617
796.554811,3.19746628
798.255477,3.00557738
799.956144,2.83036472
801.656812,2.66996398
803.357479,2.52276286
805.058145,2.38736147
805.908479,2.32369814
807.609146,2.20375746
809.309813,2.092846
811.860813,1.94151587
813.561481,1.84955749
815.262147,1.7639773
817.813148,1.64633011
820.364149,1.54008144
822.915149,1.44381312
825.46615,1.35632007
828.01715,1.27657312
830.568151,1.20368914
833.119151,1.13690693
835.670151,1.07556763
838.221152,1.01909866
840.772152,0.967000575
843.323153,0.918836131
847.149654,0.853137535
850.125821,0.806849726
851.826488,0.782095382
855.227822,0.735936523
858.629156,0.693812542
860.329823,0.674119127
863.731157,0.637215496
867.132491,0.603324159
870.533825,0.572127917
873.935159,0.543350131
875.635826,0.529791288
879.03716,0.504196572
882.438494,0.480468912
885.839828,0.45843222
889.241162,0.437930633
892.642496,0.41882579
896.04383,0.400994535
899.445164,0.384326955
905.115485,0.358865053
911.349833,0.333822865
914.751167,0.321310731
918.152501,0.30953069
923.254502,0.293113299
929.717037,0.274247561
935.074138,0.26005357
940.261172,0.247415884
945.873373,0.234838544
952.505974,0.22128187
957.267842,0.212330607
962.369843,0.203392784
967.556877,0.194936768
974.529612,0.184472859
978.015979,0.179595019
985.158781,0.170267685
988.730181,0.165914047
995.872983,0.157768796
999.444384,0.153956382
1008.71302,0.144791022
1018.04543,0.136512473
1023.95525,0.131706073
1029.86506,0.12720478
1038.72979,0.120971997
1049.10386,0.114383413
1058.73389,0.10886625
1068.36391,0.103856552
1076.86725,0.0998086477
1087.36887,0.0952425694
1095.8722,0.0918600738
1103.90785,0.0888969592
1111.47582,0.0862958132
1119.97916,0.0835740992
1129.41786,0.0807804763
1138.0538,0.0784157033
1149.36071,0.0755698483
1160.66762,0.0729803063
1168.15055,0.0713945801
1185.15722,0.0681305242
1205.05502,0.0648376647
1225.97323,0.0618956011
1240.25883,0.0601502583
1261.68723,0.0578800879
1278.01364,0.056397787
1298.63423,0.0547935227
1321.5082,0.0533224887
1338.51487,0.0524155375
1355.22392,0.0516644145
1380.05366,0.0507809179
1404.8834,0.0501495604
1423.2506,0.0498309278
1444.10225,0.0496115749
1464.36422,0.0495356403
1485.66508,0.0495949508
1515.38423,0.0499069387
1542.29729,0.050414173
1574.42743,0.0512975041
1604.65984,0.0524091969
1631.14954,0.0536153066
1656.93436,0.0550087666
1685.76606,0.0568413527
1713.41539,0.0588948648
1741.42853,0.0613023452
1771.30618,0.0642773764
1799.20394,0.0674872634
1826.50253,0.0710929656
1841.79379,0.0733401983
1856.4825,0.0756700842
1871.21668,0.0781912101
1885.1323,0.0807571276
1896.59222,0.0830169304
1911.87211,0.08625518
1923.33203,0.0888678524
1936.56551,0.0921000202
1948.98043,0.0953612835
1963.1689,0.0993878043
1976.81166,0.103592889
1989.363,0.107782316
2000.00436,0.111600012
2014.19283,0.117111144
2027.83559,0.122916775
2041.97859,0.129528664
2054.12065,0.135749522
2067.76341,0.143420118
