energy [eV],cross section [b]
1e-05,651.833729
1.09846904e-05,621.932097
1.19693809e-05,595.800812
1.30402594e-05,570.813029
1.38690957e-05,553.49406
1.46979321e-05,537.66153
1.59411866e-05,516.269925
1.69876622e-05,500.115594
1.85573756e-05,478.496769
1.96038512e-05,465.550338
2.07877208e-05,452.099443
2.21089843e-05,438.382375
2.34302478e-05,425.842606
2.47515113e-05,414.320824
2.62462461e-05,402.350091
2.87485556e-05,384.44111
3.1250865e-05,368.728707
3.4191219e-05,352.517627
3.73505952e-05,337.279183
4.05099713e-05,323.860142
4.31692901e-05,313.726467
4.71582683e-05,300.164898
4.98175871e-05,292.043555
5.28260533e-05,283.605762
5.6183667e-05,275.001
5.95412807e-05,267.134763
6.28988943e-05,259.907115
6.6697336e-05,252.39784
7.30562406e-05,241.16349
7.72955103e-05,234.45706
8.153478e-05,228.280715
8.95634319e-05,217.808962
9.75920838e-05,208.657618
0.000106323468,199.906743
0.000113081367,193.841539
0.000119839266,188.296899
0.000129976114,180.805447
0.00013850853,175.148121
0.000151307154,167.577111
0.00015983957,163.043218
0.000169492224,158.332665
0.000180265117,153.528901
0.00019103801,149.137438
0.000201810902,145.102481
0.000213998191,140.910305
0.000234400716,134.638553
0.000254803241,129.136059
0.000278777352,123.458941
0.000304537256,118.122455
0.00033029716,113.423135
0.000351979857,109.874352
0.000384503903,105.125145
0.000417027949,100.942987
0.000444404178,97.7847524
0.000471780407,94.9055762
0.000499156637,92.2666452
0.000526532866,89.8363061
0.000561097658,87.0256471
0.000612944847,83.2642514
0.000647509639,81.0117517
0.000686612514,78.6714926
0.000752073951,75.1703372
0.000817535387,72.0986307
0.000894456247,68.9294619
0.000949556627,66.9001315
0.0010322072,64.1665096
0.00112932625,61.346159
0.00119889512,59.5401931
0.00126846398,57.8849299
0.00133803285,56.3605136
0.00142586939,54.5975542
0.00151370594,52.9903802
0.00160154248,51.5173237
0.00168937903,50.1607139
0.00185573056,47.8606685
0.00196663159,46.4922636
0.00207753262,45.2349639
0.002273005,43.2472516
0.00248303782,41.3788449
0.00269307063,39.7335603
0.00295825472,37.9121023
0.00313504412,36.8284428
0.00340022821,35.3643316
0.00362343969,34.2587102
0.00384665117,33.2508052
0.00406986266,32.3270247
0.00429307414,31.4762846
0.00457489741,30.4924407
0.00485672069,29.595557
0.00513854396,28.7735375
0.00542036723,28.0165181
0.00595410562,26.7330849
0.006487844,25.6115571
0.00706829946,24.5391822
0.00774218907,23.4488801
0.00841607868,22.4923872
0.00920793676,21.5056282
0.00977516497,20.8738212
0.0106260073,20.0228104
0.0112677081,19.4458562
0.0119838814,18.8575355
0.0127000547,18.3197579
0.0134162281,17.8256825
0.0142264293,17.3124052
0.0155827729,16.544615
0.016487002,16.0863435
0.017391231,15.6643435
0.0191037289,14.9489777
0.0208162268,14.3239523
0.0227934191,13.6920028
0.024464473,13.2188913
0.0265118429,12.7014975
0.0286336608,12.2251046
0.0304536108,11.8569055
0.0331835356,11.3626396
0.0350034855,11.0658536
0.0373013254,10.7227174
0.0395991653,10.4099962
0.0418970051,10.1234576
0.044194845,9.85965002
0.0470960611,9.55466674
0.0514478853,9.14672012
0.0557997094,8.78769814
0.0610583684,8.40643192
0.0663170274,8.07171629
0.0727642684,7.71225139
0.0773891511,7.48273972
0.0843264753,7.17481439
0.0918710098,6.88068208
0.0977103133,6.6770276
0.103549617,6.49101934
0.112308572,6.23998438
0.119681184,6.05065276
0.127053796,5.87825448
0.134426408,5.72043127
0.14179902,5.57526026
0.155761834,5.32956707
0.165070376,5.18368588
0.174378919,5.04986745
0.190786008,4.83879081
0.208415236,4.64100414
0.226044463,4.46742161
0.240883385,4.33676014
0.263141767,4.1625604
0.285400149,4.00988637
0.301621462,3.90986586
0.334064087,3.7331309
0.360341696,3.60873405
0.383996698,3.5084974
0.4076517,3.41769153
0.431306702,3.33500813
0.454961703,3.25938089
0.484828133,3.17262406
0.529627777,3.05789641
0.588507566,2.92984018
0.654376735,2.81049102
0.701634205,2.73723119
0.771749855,2.64382085
0.841480228,2.56572563
0.9112106,2.49963604
0.9758179,2.44733206
1.03593033,2.40525251
1.12609897,2.35230514
1.1916732,2.32044142
1.29219944,2.28092268
1.39272568,2.25124466
1.45974318,2.23630015
1.6123671,2.21509497
1.7525984,2.20976033
1.8928297,2.21678948
2.033061,2.2355596
2.1732923,2.2658578
2.3135236,2.30782326
2.4537549,2.36192209
2.5939862,2.42894745
2.7342175,2.51004208
2.8744488,2.60674313
3.0146801,2.72105241
3.1549114,2.8555378
3.22502705,2.93133774
3.2951427,3.01347549
3.40031618,3.14979393
3.47043183,3.25035632
3.54054748,3.35953431
3.60908403,3.47540488
3.6760415,3.59822524
3.75089443,3.747992
3.82101008,3.90155369
3.92618355,4.15933619
3.96124138,4.25345542
4.03135703,4.45550367
4.06641485,4.56401225
4.1365305,4.7976296
4.20664615,5.05588658
4.2767618,5.34226461
4.31181963,5.49726112
4.38193528,5.83381298
4.45205092,6.21038075
4.52216657,6.6334853
4.5572244,6.86490051
4.59228222,7.11104987
4.6554607,7.59600201
4.71498461,8.10829015
4.75004244,8.43870237
4.78510026,8.79290081
4.837687,9.37399534
4.87274483,9.79855629
4.90780265,10.2564934
4.96038939,11.0139894
4.99544721,11.5722364
5.03050504,12.1788452
5.06556286,12.8395866
5.10062069,13.5611216
5.13567851,14.3511713
5.17073634,15.2187265
5.20579416,16.1743063
5.24085199,17.2302809
5.27240403,18.2785299
5.29694451,19.1661872
5.3179792,19.9830238
5.33550812,20.7068506
5.35654281,21.6318264
5.38458907,22.9707069
5.3986122,23.6898929
5.42665846,25.2391453
5.44068159,26.0743625
5.46872785,27.8806034
5.48275098,28.8582832
5.51079724,30.9817875
5.53183194,32.7389194
5.55286663,34.6561178
5.57390133,36.7534492
5.59493602,39.0542198
5.61597072,41.5856217
5.62999385,43.4168727
5.64401698,45.3754802
5.66505167,48.5789999
5.6790748,50.9120958
5.69309793,53.4216989
5.71413263,57.5575685
5.72815576,60.5935338
5.74217889,63.8811743
5.75620202,67.4489896
5.76671936,70.3281663
5.77723671,73.3987103
5.79125984,77.8205533
5.80528297,82.6599915
5.8193061,87.9709573
5.83332923,93.816294
5.84735236,100.269562
5.86137549,107.417282
5.87539862,115.36173
5.88241019,119.669848
5.88942175,124.224466
5.89643332,129.044524
5.90695066,136.818277
5.91746801,145.315386
5.92447958,151.426438
5.93149114,157.929692
5.94200849,168.494668
5.94902005,176.133955
5.9595374,188.59612
5.96654897,197.645903
5.97706631,212.476358
5.98407788,223.296622
5.99459523,241.117205
5.99810101,247.524816
6.00511257,261.114444
6.00861836,268.323607
6.01562992,283.645097
6.0191357,291.790131
6.02614727,309.13873
6.02965305,318.381901
6.03666462,338.115191
6.04367618,359.674525
6.05068775,383.280529
6.05594642,402.478805
6.06295798,430.296618
6.06821666,453.000861
6.07522822,486.019181
6.08223979,522.55598
6.08925135,563.084941
6.09275714,585.013868
6.09626292,608.151553
6.0997687,632.579071
6.10327448,658.383284
6.10678027,685.65717
6.11028605,714.500135
6.11379183,745.018299
6.11729761,777.324743
6.1208034,811.539686
6.12430918,847.790572
6.12781496,886.212031
6.13132074,926.945668
6.13482653,970.13963
6.1400852,1039.8818
6.14359098,1089.91004
6.14884966,1170.65853
6.15410833,1258.73685
6.159367,1354.65799
6.16462568,1458.86425
6.16813146,1533.101
6.17128666,1603.22562
6.17689592,1735.6103
6.18390748,1914.3765
6.19091905,2105.84511
6.2077468,2586.04748
6.21335605,2736.6115
6.21756299,2839.87017
6.22036762,2902.38984
6.22317224,2958.777
6.22597687,3008.14332
6.2287815,3049.66538
6.23158612,3082.61631
6.23439075,3106.39582
6.23719537,3120.55642
6.23985977,3124.84759
6.24420694,3112.53477
6.24701157,3092.09936
6.24981619,3062.2828
6.25262082,3023.62421
6.25542544,2976.8016
6.25823007,2922.6032
6.2610347,2861.89621
6.26524163,2760.63813
6.27085089,2611.45188
6.28767864,2128.65705
6.29609252,1896.92165
6.30170177,1752.49968
6.3045064,1683.80723
6.30871334,1585.3939
6.31186854,1515.28366
6.31537432,1441.10128
6.320633,1337.03961
6.32589167,1241.32318
6.33115035,1153.495
6.33640902,1073.03011
6.3399148,1023.20465
6.34517348,953.781292
6.34867926,910.806773
6.35218504,870.296183
6.35569082,832.100007
6.35919661,796.07548
6.36270239,762.086996
6.36620817,730.006293
6.36971395,699.712466
6.37321974,671.091869
6.37672552,644.037912
6.3802313,618.450811
6.38373708,594.23728
6.38724287,571.310215
6.39074865,549.588347
6.39425443,528.99591
6.39776021,509.462293
6.40477178,473.31291
6.41178334,440.666247
6.41528913,425.525722
6.42230069,397.379368
6.42580647,384.290461
6.43281804,359.894088
6.43632382,348.519199
6.44333539,327.263886
6.44684117,317.328527
6.45385273,298.71818
6.45735852,289.99823
6.46437008,273.626856
6.46787586,265.938451
6.47488743,251.472174
6.47839321,244.663732
6.48540478,231.826603
6.48891056,225.772519
6.49592212,214.335308
6.50643947,198.702304
6.51345104,189.188465
6.52396838,176.120859
6.53097995,168.13058
6.5414973,157.106721
6.54850886,150.336991
6.55552043,143.987118
6.56253199,138.023709
6.56954356,132.416568
6.57655512,127.138343
6.58356669,122.164216
6.59057825,117.47163
6.59758982,113.040053
6.60460138,108.850763
6.61862451,101.132126
6.63264764,94.1956453
6.64667077,87.9403594
6.6606939,82.2809176
6.66770547,79.6515387
6.6817286,74.7532774
6.69575173,70.2888718
6.70977486,66.2090649
6.71678642,64.2998669
6.73080955,60.7190483
6.73782112,59.038853
6.75184425,55.8795524
6.75885581,54.393461
6.77287894,51.5925793
6.77989051,50.2720532
6.8009252,46.5993243
6.82195989,43.3129477
6.84299459,40.3609945
6.86402928,37.6999299
6.87805241,36.0691211
6.89908711,33.8140919
6.91311024,32.4261287
6.93414493,30.4991122
6.94816806,29.3084013
6.96920276,27.6491748
6.98322589,26.6202974
6.99724902,25.6480017
7.01127215,24.7282473
7.03931841,23.0319277
7.05334154,22.2489047
7.0813878,20.7989563
7.10943406,19.4875043
7.13748032,18.2975974
7.1620208,17.3447255
7.19357284,16.2267173
7.21460753,15.5413733
7.23914801,14.7963154
7.27420584,13.8233623
7.29173475,13.3733244
7.32679257,12.5384019
7.34432149,12.1507898
7.37937931,11.4292197
7.39690822,11.0931149
7.41443714,10.7721642
7.44907523,10.1791161
7.49310738,9.49617868
7.53713952,8.88279218
7.57219735,8.43810416
7.58972626,8.22890706
7.642313,7.64870104
7.67737083,7.29757162
7.72995756,6.81775841
7.76501539,6.5258176
7.80007321,6.25390118
7.83513104,6.0002616
7.88771778,5.65070147
7.9227756,5.43627522
7.95783343,5.23533249
7.99289125,5.04680163
8.02794908,4.86971551
8.0630069,4.70319953
8.13312255,4.39878146
8.2032382,4.12803893
8.27335385,3.88640253
8.3434695,3.67005705
8.41358515,3.47579769
8.4837008,3.30091722
8.55381645,3.14311676
8.6239321,3.00043468
8.65898993,2.93422795
8.72910558,2.8111454
8.79922123,2.6994045
8.86933688,2.59784096
8.93945253,2.50544326
9.00956818,2.42132979
9.07968383,2.34472992
9.1848573,2.24246325
9.25497295,2.1818685
9.3250886,2.12675825
9.37588724,2.09000938
9.4653199,2.03130889
9.53543555,1.99024804
9.6055512,1.95321677
9.7457825,1.89021066
9.8860138,1.84051136
10.0262451,1.80273238
10.1664764,1.77580672
10.2365921,1.76615421
10.3768234,1.75407767
10.5170547,1.75126582
10.657286,1.75743323
10.7975173,1.77246755
10.87,1.78372548
10.9947328,1.80874896
11.140064,1.84717706
11.2853952,1.89608248
11.4307264,1.95619941
11.503392,1.9907581
11.6487232,2.06961906
11.7940544,2.16269683
11.9019839,2.24207068
12.0120512,2.33303874
12.0847168,2.39917754
12.1937152,2.50839311
12.3027136,2.63092899
12.411712,2.76851612
12.4843776,2.86960694
12.593376,3.03706953
12.7023744,3.22605218
12.8113728,3.43994587
12.9203712,3.68287978
12.956704,3.77115494
13.0293696,3.95991863
13.0657024,4.06088553
13.138368,4.27732514
13.1928672,4.45353544
13.2473664,4.64291314
13.320032,4.91816611
13.3563648,5.06652879
13.4290304,5.38723453
13.4653632,5.56071627
13.5380288,5.93718359
13.592528,6.24830593
13.6470272,6.58732315
13.7015264,6.95762762
13.7560256,7.3631469
13.8105248,7.80844825
13.865024,8.29886787
13.9195232,8.84067151
13.9740224,9.44125576
14.0285216,10.109402
14.0830208,10.8555996
14.13752,11.6924602
14.1556864,11.9941115
14.1920192,12.6352549
14.2101856,12.9761679
14.2465184,13.702616
14.2828512,14.4945016
14.319184,15.359919
14.3373504,15.8230783
14.3736832,16.8168652
14.410016,17.9106479
14.4463488,19.1182989
14.4826816,20.4561819
14.5117478,21.6331804
14.5444474,23.0862444
14.5626138,23.9592036
14.5844134,25.0752501
14.6134797,26.6916167
14.6280128,27.5602733
14.657079,29.4324276
14.6716122,30.4422113
14.7006784,32.6270429
14.7152115,33.8102176
14.7370112,35.7113445
14.7515443,37.07059
14.773344,39.261814
14.7951437,41.6558689
14.8169434,44.2785249
14.838743,47.159765
14.8605427,50.3346352
14.8823424,53.8443019
14.9041421,57.7373734
14.9259418,62.0715663
14.9477414,66.9158204
14.955008,68.6577784
14.9695411,72.353005
14.9840742,76.3558822
14.9986074,80.7013263
15.0095072,84.2090527
15.0238314,89.1780452
15.0349402,93.3409404
15.0494733,99.2420253
15.0640064,105.720239
15.0785395,112.852651
15.0930726,120.729491
15.1076058,129.456905
15.1221389,139.160395
15.1294054,144.423724
15.136672,149.989151
15.1439386,155.879921
15.1512051,162.121526
15.1584717,168.741963
15.1693715,179.45114
15.1766381,187.160349
15.1839046,195.370747
15.1911712,204.1259
15.202071,218.387146
15.2093376,228.727389
15.2202374,245.644628
15.227504,257.966268
15.2384038,278.222405
15.2456704,293.049343
15.2493037,300.900248
15.2565702,317.553119
15.2602035,326.38847
15.2674701,345.168594
15.2711034,355.153598
15.2783699,376.424148
15.2820032,387.758423
15.2892698,411.959339
15.2947197,431.568624
15.3001696,452.552148
15.3056195,475.034441
15.3110694,499.153473
15.3165194,525.062262
15.3219693,552.930657
15.3274192,582.947343
15.3346858,626.677194
15.3401357,662.563105
15.343769,688.104416
15.3474022,715.040115
15.3510355,743.463403
15.3546688,773.474216
15.3583021,805.17963
15.3619354,838.694282
15.3655686,874.140747
15.3692019,911.649908
15.3728352,951.361252
15.3764685,993.423102
15.3801018,1037.99273
15.383735,1085.2363
15.3873683,1135.32866
15.3910016,1188.45275
15.3946349,1244.7988
15.4000848,1335.78917
15.4037181,1401.05602
15.409168,1506.36715
15.4128013,1581.79811
15.4182512,1703.22582
15.4237011,1835.03245
15.430241,2007.33671
15.4360543,2173.431
15.4418675,2351.08101
15.4505874,2635.82098
15.4665738,3179.67869
15.4723871,3365.70833
15.476747,3493.40226
15.4796536,3570.78248
15.4825603,3640.63532
15.4854669,3701.8645
15.4883735,3753.45313
15.4912801,3794.50268
15.4941868,3824.27
15.4970934,3842.19975
15.5001453,3847.91442
15.5029066,3841.40664
15.5058132,3822.69204
15.5101732,3772.62333
15.5130798,3725.47021
15.5159864,3668.24337
15.5188931,3601.91055
15.5217997,3527.53733
15.5261596,3403.36832
15.5319729,3220.25288
15.5494126,2626.85197
15.5581325,2341.73732
15.5639457,2163.97286
15.5668524,2079.40225
15.5726656,1919.36151
15.5762989,1825.58754
15.5799322,1736.59492
15.5853821,1611.86411
15.590832,1497.21654
15.5962819,1392.05972
15.6017318,1295.73488
15.6071818,1207.56047
15.6126317,1126.8615
15.616265,1076.89305
15.6217149,1007.22775
15.6253482,964.056518
15.6289814,923.312631
15.6326147,884.842939
15.6380646,831.089546
15.6416979,797.693728
15.6453312,766.105315
15.6489645,736.209539
15.6525978,707.899221
15.656231,681.074351
15.6634976,631.514279
15.6707642,586.856946
15.6780307,546.518794
15.6852973,509.993414
15.6925638,476.841087
15.6998304,446.679585
15.707097,419.176166
15.7143635,394.040661
15.7179968,382.28036
15.7252634,360.231386
15.7288966,349.890806
15.7361632,330.459694
15.7397965,321.32639
15.747063,304.127003
15.7506963,296.025497
15.7579629,280.738089
15.7615962,273.522703
15.772496,253.430351
15.7833958,235.423947
15.7942957,219.230542
15.8015622,209.326739
15.8124621,195.659833
15.8197286,187.265129
15.8306285,175.633592
15.837895,168.460904
15.8487949,158.485571
15.8560614,152.311986
15.8669613,143.696837
15.8742278,138.347386
15.8851277,130.858882
15.8923942,126.194835
15.9069274,117.575772
15.9214605,109.800376
15.9359936,102.763117
15.9505267,96.3743115
15.9650598,90.5573777
15.979593,85.2466211
15.9941261,80.3854448
16.0086592,75.924889
16.0231923,71.8224358
16.0304589,69.8937264
16.044992,66.2604177
16.0595251,62.9010504
16.0813248,58.3181394
16.1031245,54.2150748
16.1249242,50.5275045
16.1467238,47.2014635
16.1685235,44.1914335
16.1903232,41.4588114
16.2121229,38.97069
16.2339226,36.6988824
16.2557222,34.6191348
16.2775219,32.7104879
16.292055,31.5240313
16.3138547,29.861313
16.3283878,28.8245626
16.3574541,26.9061148
16.3719872,26.0176688
16.4010534,24.367451
16.4155866,23.6004191
16.4373862,22.5158416
16.4664525,21.1819917
16.5027853,19.6746365
16.5354848,18.4512065
16.5718176,17.2208545
16.6081504,16.1094518
16.6263168,15.5936396
16.6626496,14.633624
16.680816,14.1865234
16.7171488,13.3516905
16.7353152,12.9616595
16.771648,12.2312276
16.7898144,11.8889845
16.8261472,11.246304
16.8443136,10.9443764
16.8806464,10.3759827
16.8988128,10.1083008
16.953312,9.36480432
17.0078112,8.70075523
17.0623104,8.1052662
17.0986432,7.74181166
17.1531424,7.24112507
17.1894752,6.93405622
17.2439744,6.5091409
17.2803072,6.24741473
17.3348064,5.88377838
17.3711392,5.6589243
17.407472,5.44688775
17.4438048,5.2467176
17.498304,4.96684174
17.5346368,4.79272131
17.6073024,4.47133379
17.679968,4.18182398
17.7526336,3.92013511
17.8252992,3.68283499
17.8979648,3.46700417
17.9706304,3.27014686
18.043296,3.09011932
18.1159616,2.92507199
18.1522944,2.84765659
18.22496,2.70214147
18.2976256,2.56798137
18.406624,2.38557969
18.4792896,2.27512453
18.5519552,2.17260564
18.6609536,2.0321306
18.769952,1.90575358
18.8752569,1.79536312
18.9879488,1.68840086
19.0969472,1.59462146
19.2059456,1.50924344
19.314944,1.4313222
19.4239424,1.36004341
19.496608,1.31586239
19.6419392,1.23468581
19.7146048,1.1973665
19.859936,1.12855741
19.9326016,1.09681913
20.0779328,1.0381279
20.1505984,1.01098187
20.2959296,0.960661481
20.404928,0.926100691
20.5139264,0.894014614
20.6592576,0.854741851
20.8045888,0.819103054
20.8772544,0.802532772
21.0225856,0.771690447
21.2405824,0.730652366
21.3859136,0.706425967
21.6039104,0.674280061
21.7492416,0.655398854
21.9672384,0.630548226
22.1125696,0.616124429
22.3305664,0.597462791
22.4758976,0.586890826
22.6848992,0.574167069
22.7947984,0.568608448
23.0090235,0.55994771
23.1518401,0.555743745
23.3660652,0.551773001
23.5802902,0.55062321
23.7945153,0.552365033
24.0221631,0.557530672
24.2229654,0.565105832
24.4371904,0.57657077
24.6514155,0.591884516
24.8656406,0.611520451
25.0798656,0.636091116
25.2226823,0.655594418
25.2940907,0.666386505
25.4369073,0.690256223
25.5083157,0.703427085
25.6511324,0.732507094
25.7939491,0.765653955
25.8653574,0.783931433
26.0081742,0.824316366
26.0795825,0.846618702
26.2223992,0.896008785
26.3295117,0.937764044
26.4366243,0.984144665
26.5080326,1.01794043
26.5794409,1.05428209
26.6508493,1.0934088
26.7222576,1.13558926
26.793666,1.18112621
26.8650744,1.23036168
26.9364827,1.28368326
27.0435952,1.37230764
27.1150036,1.43791062
27.1864119,1.50943695
27.2578203,1.58759601
27.2935244,1.62941415
27.3649328,1.71909975
27.4363411,1.81772277
27.4720453,1.87075323
27.5434537,1.985097
27.614862,2.1117862
27.6505662,2.18031441
27.7219745,2.32902784
27.7933829,2.4952967
27.8290871,2.5858813
27.8826433,2.7322079
27.9183475,2.83739918
27.9719038,3.00795642
28.0076079,3.13104356
28.0611642,3.33144816
28.0968684,3.47670271
28.1504246,3.71430093
28.1861288,3.88735095
28.2396851,4.17189898
28.2753893,4.38028032
28.2932413,4.49066798
28.3289455,4.72495829
28.3467976,4.84935554
28.3825018,5.11402181
28.4003539,5.25489662
28.436058,5.55541173
28.4717622,5.88348924
28.4896143,6.05892734
28.5253185,6.43502585
28.5431706,6.6367732
28.5788747,7.07072236
28.5967268,7.30430322
28.632431,7.80858033
28.6574239,8.19413702
28.6895577,8.73435969
28.7216914,9.33110579
28.7502548,9.915558
28.7788181,10.5578175
28.8073815,11.2657509
28.8359448,12.0486076
28.8645081,12.9173202
28.8930715,13.8848857
28.9073532,14.4104808
28.9287757,15.2573283
28.9430573,15.8645146
28.957339,16.5090545
28.9716207,17.194066
28.9930432,18.3051139
29.0073248,19.1072264
29.0287474,20.4137283
29.043029,21.3611077
29.0644515,22.9115134
29.0787332,24.041282
29.1001557,25.8999438
29.1144374,27.2618034
29.1215782,27.9834626
29.1358599,29.5156271
29.1501416,31.1773
29.1572824,32.0612816
29.1715641,33.9458527
29.1787049,34.9510224
