energy [eV],cross section [b]
1e-05,7.2274433
1.09867509e-05,6.89525061
1.19735017e-05,6.60501948
1.30468017e-05,6.32750742
1.38777338e-05,6.13515328
1.47086659e-05,5.95933846
1.5955064e-05,5.72183616
1.70046422e-05,5.54243928
1.80542204e-05,5.37892294
1.91037986e-05,5.22907447
2.01533769e-05,5.09109006
2.21420131e-05,4.8570899
2.34677705e-05,4.71790049
2.4793528e-05,4.59003004
2.71310155e-05,4.38784894
2.96429286e-05,4.19782315
3.21548418e-05,4.03052393
3.42700963e-05,3.90415481
3.74429781e-05,3.73507649
4.06158599e-05,3.58621949
4.32877089e-05,3.47378065
4.59595579e-05,3.37129511
4.86314069e-05,3.27737605
5.13032558e-05,3.1908929
5.4678158e-05,3.09084875
5.97405112e-05,2.95699251
6.31154133e-05,2.8768484
6.69343405e-05,2.79357411
7.33287687e-05,2.66899337
7.9723197e-05,2.55971927
8.7239351e-05,2.44696906
9.5316368e-05,2.34099749
0.000103393385,2.24769983
0.000110194952,2.17722764
0.000120397304,2.08293784
0.000127198871,2.02648345
0.000134895299,1.96782413
0.000143486587,1.90800292
0.000152077875,1.85332537
0.000160669163,1.80309422
0.00017039078,1.75090121
0.000186668696,1.67281895
0.000197520641,1.6262168
0.000208372585,1.58330432
0.000228933768,1.5105314
0.000249494951,1.44695093
0.000271859579,1.38615681
0.000289173926,1.3440181
0.000306488273,1.30550263
0.000332459793,1.25347338
0.000354330126,1.2141732
0.000387135625,1.16159066
0.000409005957,1.13010777
0.000433753699,1.09739527
0.00046137885,1.06403481
0.000489004001,1.03354281
0.000516629152,1.00553044
0.000547888856,0.97642399
0.000600230239,0.932879903
0.000652571623,0.89468587
0.000714094856,0.855276849
0.000780209014,0.818237133
0.000846323172,0.785627267
0.00090199718,0.760995471
0.000957671188,0.738544128
0.0010411822,0.708306602
0.00110418106,0.687803702
0.00117450477,0.666894692
0.00124482848,0.647783518
0.00131515218,0.630226474
0.00139472816,0.611983709
0.00148355639,0.593379602
0.00157238463,0.576375145
0.00166121286,0.560753501
0.00181782891,0.536053491
0.0019861318,0.512838467
0.00215443469,0.492399897
0.00236702372,0.469767869
0.00257961275,0.449994649
0.00281084821,0.431087968
0.00298986711,0.417983031
0.003168886,0.406004904
0.00334790489,0.395000846
0.00355047672,0.383567004
0.00377660149,0.371906688
0.00400272627,0.361248969
0.00422885104,0.351457942
0.00448472632,0.341284508
0.00477035211,0.330909565
0.00519879079,0.316981091
0.00566480834,0.303663017
0.00620598362,0.290121013
0.0067471589,0.27824285
0.00738326843,0.265986832
0.0078389862,0.258139523
0.00852256286,0.247570748
0.00932605417,0.236665771
0.00990168658,0.229683509
0.010477319,0.223284875
0.0110529514,0.217392845
0.011780052,0.210576914
0.0125071527,0.204364342
0.0132342533,0.198671061
0.0139613539,0.193428538
0.0153389917,0.184538033
0.0167166295,0.17677055
0.0182151016,0.169343468
0.0199552421,0.161791509
0.0216953827,0.155167425
0.0237877148,0.148186224
0.0253,0.143689133
0.027427632,0.138003474
0.0290623111,0.134066138
0.0309132481,0.129990572
0.032764185,0.126265439
0.0346151219,0.122843238
0.0367095806,0.119287378
0.0402165515,0.113967711
0.042554532,0.110792756
0.0448925126,0.107869175
0.0493222851,0.10291124
0.0537520577,0.0985795825
0.0585703709,0.0944377622
0.0641657653,0.0902263102
0.0697611597,0.0865323086
0.0739822013,0.0840275545
0.0786940216,0.0814731938
0.0857617521,0.0780439483
0.0904735724,0.0759845883
0.0964252308,0.0736023183
0.102376889,0.0714309405
0.108328548,0.0694410709
0.114280206,0.0676087556
0.121797945,0.0654891361
0.133074555,0.0626531696
0.144351164,0.0601564057
0.158595027,0.0573917292
0.172838891,0.0549763204
0.188332101,0.0526668103
0.200326702,0.0510660335
0.218318604,0.0489170239
0.237888598,0.0468622586
0.253039381,0.0454380691
0.268190165,0.0441363763
0.283340949,0.0429405764
0.300485072,0.0416981176
0.319622536,0.0404311039
0.338759999,0.0392730893
0.357897462,0.0382093004
0.391639366,0.0365274288
0.427899125,0.0349468469
0.464158883,0.0335554722
0.509959801,0.0320150128
0.555760719,0.0306693937
0.60557889,0.0293830221
0.644147341,0.0284915824
0.682715792,0.0276769565
0.740568469,0.0265768014
0.789285574,0.0257460685
0.83800268,0.0249891113
0.886719785,0.0242956574
0.94442492,0.0235450195
1.00371412,0.0228425445
1.06300333,0.0222000064
1.12229253,0.0216093887
1.18158173,0.021064101
1.29817441,0.0201037212
1.41476709,0.0192657036
1.54158625,0.0184655561
1.68885838,0.0176533868
1.83613051,0.0169424853
1.94722934,0.0164614081
2.07124558,0.0159717488
2.25726995,0.0153161663
2.45961074,0.014691654
2.61625982,0.0142604166
2.7729089,0.0138676535
2.92955798,0.013508193
3.10681687,0.0131362941
3.30468559,0.0127589824
3.60148865,0.0122561434
3.79935737,0.0119566018
4.04424668,0.0116193944
4.41662595,0.0111667859
4.79909581,0.0107644042
5.294385,0.0103190496
5.78967419,0.00994251374
6.06189899,0.00975993091
6.46067127,0.00951918858
7.05882967,0.00920916136
7.45760194,0.00903158376
7.96047406,0.00883609016
8.56744602,0.00863687135
9.07114866,0.00849817091
9.67179864,0.00836050034
10.1080169,0.00827754544
10.6352061,0.0081946819
11.4259898,0.00810293807
12.2167735,0.00804676166
13.0867495,0.00802262847
13.9567256,0.00803547059
14.6940711,0.00807413054
15.4314166,0.00813778381
16.3163505,0.00824714637
17.1410738,0.00838199605
17.8397977,0.00852192192
18.7332479,0.00873684563
19.3359566,0.00890594788
19.9716808,0.00910674782
20.9611462,0.00946877336
21.7572332,0.0098080954
22.61632,0.0102281021
23.5384235,0.010749152
24.2600905,0.0112145559
24.907218,0.0116805998
25.6059419,0.012242059
26.4020289,0.0129657462
26.8000725,0.013365402
27.3412971,0.0139541612
28.0113848,0.0147640359
28.7330177,0.0157512913
28.973562,0.0161102906
29.4546505,0.0168784109
29.9300119,0.0177096184
30.399646,0.0186100512
30.8635528,0.0195866198
31.2564419,0.020489713
31.5622767,0.0212462686
32.0090018,0.0224450758
32.4671814,0.0238044482
32.94827,0.0253940687
33.3835406,0.0269971882
33.8417202,0.0288805435
34.07081,0.0299073945
34.2998998,0.0309971958
34.5289896,0.0321551788
34.7580794,0.0333871343
34.9871692,0.0346994854
35.216259,0.0360993728
35.4453488,0.037594753
35.6744386,0.0391945132
35.9035284,0.040908605
36.1326182,0.0427482019
36.361708,0.0447258835
36.7053427,0.0479828938
36.9344325,0.0503721343
37.1635223,0.0529581059
37.3926121,0.055763091
37.507157,0.0572555527
37.7362468,0.0604381257
37.8507917,0.0621361189
38.0798815,0.065767515
38.3089713,0.069746231
38.5094249,0.0735484543
38.6812422,0.0770739535
38.9389683,0.0828827402
39.0248769,0.0849725651
39.1968137,0.0894109261
39.4115257,0.0954822703
39.6262377,0.102221614
39.7121463,0.105127471
39.8553275,0.110264406
39.9698724,0.114660327
40.0844173,0.119334149
40.1989621,0.124309901
40.3707795,0.132398847
40.4853244,0.138252918
40.5998693,0.144516496
40.7144142,0.151228847
40.8862316,0.162236781
41.0007765,0.170276385
41.1725938,0.183536696
41.2871387,0.193279586
41.3444111,0.198451715
41.458956,0.209454217
41.5162285,0.215309797
41.6307734,0.227799642
41.6880459,0.234465077
41.8025908,0.248723974
41.8598632,0.256356348
41.9744081,0.272736114
42.088953,0.29076961
42.2034979,0.310687932
42.3180428,0.332764057
42.4039515,0.350930051
42.4612239,0.363893524
42.5184964,0.377600293
42.5757688,0.392108445
42.6330413,0.407481858
42.6903137,0.423790913
42.7475862,0.441113302
42.8048586,0.459534958
42.8621311,0.479151131
42.9194035,0.500067626
42.976676,0.522402237
43.0339484,0.546286415
43.1198571,0.585344634
43.2057658,0.628799034
43.2630382,0.660544754
43.3203107,0.69478341
43.3775831,0.731783546
43.4348556,0.771850885
43.492128,0.815334688
43.5494005,0.862635412
43.6066729,0.914213988
43.6639454,0.970603118
43.7212178,1.03242112
43.7784903,1.100389
43.8357627,1.17535158
43.8930352,1.25830395
43.9503076,1.35042473
43.9789439,1.40035192
44.0218982,1.48063382
44.0505344,1.53807721
44.0791706,1.59895017
44.1078069,1.66353148
44.1507612,1.7680385
44.1793974,1.8433093
44.2080337,1.9235174
44.2366699,2.00910451
44.2796242,2.14866314
44.3082604,2.2499796
44.3512148,2.41600318
44.379851,2.53715419
44.4228053,2.73678415
44.4514416,2.883306
44.4657597,2.9610355
44.4943959,3.12626362
44.5230321,3.305766
44.5373502,3.4013894
44.5659865,3.60555571
44.5946227,3.82872688
44.6089408,3.9481848
44.637577,4.20454782
44.6518951,4.34221783
44.6805314,4.6386912
44.6948495,4.79846887
44.7234857,5.14386939
44.7463947,5.44781319
44.7635764,5.69383008
44.7807582,5.95691631
44.8036671,6.33706774
44.8265761,6.75483552
44.8494851,7.21534232
44.8723941,7.72461135
44.8838486,7.99970751
44.9010303,8.44074032
44.9124848,8.75533198
44.9239393,9.08783456
44.9353938,9.43963033
44.9468483,9.81223707
44.9583027,10.2073243
44.9697572,10.6267319
44.9812117,11.072491
44.9983935,11.7955199
45.009848,12.3175302
45.0270297,13.167837
45.0384842,13.7844486
45.0556659,14.7935997
45.0671204,15.5289997
45.0843021,16.7389252
45.0957566,17.6254993
45.1014839,18.0953174
45.1129384,19.0928295
45.1243928,20.174709
45.1301201,20.7502708
45.1415746,21.977363
45.1473018,22.6318783
45.1587563,24.0311538
45.1644836,24.779617
45.1759381,26.3845466
45.1816653,27.2456495
45.1931198,29.0981565
45.198847,30.0954239
45.2103015,32.2485459
45.221756,34.6386565
45.2303469,36.6079464
45.2389377,38.7479221
45.244665,40.2791631
45.2503922,41.9017388
45.2589831,44.5230091
45.2647104,46.4074556
45.2704376,48.4121561
45.2761648,50.5473706
45.2818921,52.8244537
45.2876193,55.2559938
45.2933466,57.8559742
45.2990738,60.6399567
45.3048011,63.6252942
45.3105283,66.831376
45.3162556,70.2799115
45.3219828,73.9952593
45.32771,78.004809
45.3334373,82.3394261
45.3391645,87.0339698
45.3448918,92.1278986
45.3477554,94.8383923
45.3534827,100.617213
45.3592099,106.919125
45.3620735,110.285274
45.3678008,117.490727
45.373528,125.391256
45.3763916,129.628849
45.3821189,138.738892
45.3849825,143.638064
45.3892779,151.458399
45.3935734,159.893698
45.3978688,169.004823
45.4021642,178.859462
45.4064597,189.532875
45.4107551,201.108686
45.4150505,213.679698
45.419346,227.348707
45.4222096,237.126987
45.4250732,247.479926
45.4293686,264.172212
45.4322323,276.136422
45.4350959,288.821103
45.4393913,309.301886
45.4422549,323.996746
45.4451186,339.584008
45.4479822,356.115998
45.4508458,373.645396
45.4537094,392.22431
45.4565731,411.903044
45.4594367,432.728528
45.4637321,466.20574
45.4680276,502.458646
45.4726093,544.230065
45.4771911,589.127069
45.4817729,636.893644
45.4863547,687.028957
45.4989547,829.121658
45.5035365,877.760126
45.5069728,911.163637
45.5092637,931.415621
45.5115546,949.707098
45.5138455,965.751609
45.5161364,979.283312
45.5184273,990.067161
45.5207182,997.908577
45.5230091,1002.66193
45.5253,1004.23716
45.5275909,1002.60396
45.5298818,997.793263
45.5321727,989.895728
45.5344636,979.057547
45.5367545,965.473799
45.5390454,949.379959
45.5413363,931.042213
45.5436272,910.74728
45.5470635,877.285931
45.5516453,828.582939
45.5642453,686.381572
45.5688271,636.227465
45.5734089,588.450439
45.5756998,565.619684
45.5802816,522.265238
45.5840043,489.384439
45.5882997,454.071038
45.5911633,432.062777
45.5940269,411.243722
45.5968906,391.57215
45.601186,364.112375
45.6040496,347.096645
45.6069132,331.052292
45.6112087,308.692023
45.6140723,294.847392
45.6169359,281.794226
45.6212314,263.594353
45.6255268,246.915716
45.6298222,231.617595
45.6341177,217.571107
45.6384131,204.658928
45.6427085,192.774726
45.6455721,185.375185
45.6498676,174.995502
45.654163,165.408237
45.6598903,153.733366
45.6656175,143.18662
45.6684811,138.294278
45.6742084,129.197412
45.6799356,120.930073
45.6827992,117.077898
45.6885265,109.884118
45.6942537,103.309068
45.699981,97.2865404
45.7057082,91.758565
45.7114355,86.6742714
45.7171627,81.9889217
45.72289,77.6630828
45.7286172,73.661919
45.7343444,69.9545876
45.7400717,66.5137202
45.7457989,63.3149781
45.7515262,60.3366708
45.7572534,57.5594263
45.7658443,53.7331243
45.7715715,51.3865466
45.7772988,49.1877288
45.7858896,46.1407544
45.7916169,44.2616029
45.7973441,42.4932207
45.805935,40.0301534
45.8145259,37.7723531
45.8231167,35.6979126
45.8345712,33.1845634
45.8402985,32.0251179
45.851753,29.8794264
45.8574802,28.885697
45.8689347,27.0399379
45.8746619,26.1820546
45.8861164,24.5832777
45.8975709,23.125339
45.9032982,22.4441115
45.9147527,21.1682274
45.9262072,19.997292
45.9319344,19.4476443
45.9433889,18.4137236
45.9548434,17.4595422
45.9662979,16.577154
45.9834796,15.3731309
45.9949341,14.6414354
46.0063886,13.9604482
46.0178431,13.3256122
46.0292976,12.7328683
46.0407521,12.1785925
46.0522065,11.6595407
46.063661,11.1728026
46.0751155,10.7157611
46.08657,10.2860579
46.0980245,9.88156346
46.109479,9.50035081
46.1209335,9.14067317
46.132388,8.80094397
46.1495697,8.32563119
46.1667514,7.887638
46.1896604,7.35520835
46.2125694,6.87470012
46.2240239,6.65183793
46.2469329,6.23730244
46.2641146,5.95120792
46.2784327,5.72750573
46.2956145,5.47525619
46.3156598,5.20138867
46.3271143,5.05398265
46.3557505,4.71165368
46.3700686,4.5533346
46.3987049,4.2596365
46.4273411,3.9933555
46.4416592,3.86944438
46.4702954,3.63825017
46.4989317,3.4270935
46.5275679,3.23372813
46.5562041,3.0562136
46.5848403,2.89286663
46.6134766,2.74222133
46.6421128,2.60299639
46.670749,2.47406788
46.6993852,2.35444669
46.7423396,2.19058353
46.7709758,2.09062496
46.799612,1.9973258
46.8425663,1.8686167
46.8855207,1.7519064
46.928475,1.64575086
46.9714294,1.54891672
47.0143837,1.46034549
47.057338,1.37912462
47.1002924,1.30446405
47.1575648,1.21394736
47.1862011,1.17216415
47.2434735,1.09478693
47.2721097,1.05892543
47.3007459,1.02478812
47.3437003,0.976579811
47.3866546,0.931676776
47.4152909,0.903430706
47.4725633,0.850639247
47.5011995,0.825952191
47.558472,0.779678224
47.5871082,0.757977512
47.6443807,0.717192634
47.7016531,0.679593968
47.7589256,0.644858708
47.8448342,0.597515154
47.9021067,0.568773612
47.9593791,0.542043868
48.0166516,0.517142851
48.073924,0.49390783
48.1311965,0.472193762
48.1884689,0.451871037
48.2457414,0.43282355
48.3030138,0.414947046
48.3602863,0.398147699
48.4175587,0.382340886
48.4748312,0.367450127
48.5321036,0.353406157
48.5893761,0.340146134
48.6466485,0.327612929
48.703921,0.315754519
48.7898297,0.299129469
48.9043745,0.278914792
49.0189194,0.260666455
49.0761919,0.252201149
49.1907368,0.236452438
49.2480093,0.229120913
49.3625542,0.215436545
49.4198266,0.209045588
49.5196513,0.198560703
49.619476,0.188838489
49.7634613,0.176015149
49.8780062,0.166715978
49.9352787,0.162337767
50.0498235,0.154078618
50.107096,0.15018118
50.2216409,0.142813079
50.3934583,0.132728447
50.5080032,0.126581843
50.6798205,0.118125299
50.7943654,0.112945328
50.9661828,0.105785627
51.0807277,0.101380484
51.1952725,0.0972421596
51.3384537,0.0924126333
51.510271,0.0870730173
51.5961797,0.084573348
51.7679971,0.0798832692
51.8539057,0.0776817077
52.0257231,0.0735404023
52.1116318,0.0715915812
52.2834491,0.0679170567
52.3693578,0.0661839047
52.6270838,0.0613608865
52.8561736,0.057498851
53.0852634,0.0539868716
53.3143532,0.050784119
53.543443,0.047855534
53.7725328,0.0451708771
53.8870777,0.0439116965
54.1161675,0.0415449089
54.3452573,0.039362804
54.5743471,0.0373467801
54.688892,0.0363958676
55.0325267,0.0337496317
55.3761614,0.0313797924
55.7197961,0.0292494193
56.0634308,0.0273275332
56.4070655,0.0255879928
56.7507002,0.024008617
57.0943349,0.0225704875
57.4379696,0.0212573899
57.6670594,0.0204444787
57.9935124,0.0193641639
58.3428743,0.018300146
58.5834186,0.0176177251
58.9270533,0.016707243
59.1905066,0.0160562745
59.6372317,0.0150365456
59.9579574,0.014363465
60.1870472,0.0139101603
60.650954,0.0130560611
61.1205881,0.012269846
61.5204827,0.0116556827
62.0157154,0.0109578342
62.510948,0.0103218419
62.9778926,0.00977253579
63.2797595,0.00944096302
63.852484,0.00885772359
64.4495493,0.00830700347
64.8475928,0.00796884007
65.2456363,0.00765167473
65.6193391,0.0073715269
65.968701,0.00712392833
66.3595855,0.00686211153
66.7919925,0.00658981491
67.2243995,0.00633431575
68.0133275,0.00590719994
68.7206422,0.00556241269
69.2933667,0.00530659696
70.0894538,0.00498184375
70.9170407,0.00467790009
71.5527649,0.00446504203
72.3173521,0.00423015789
72.7640772,0.00410263745
73.6575274,0.00386697139
74.161525,0.00374445977
74.7342495,0.0036135617
75.306974,0.00349087039
76.2004242,0.003314437
76.6471493,0.00323251207
77.6124537,0.00306847833
78.131033,0.00298713262
78.6496123,0.00291015635
79.6117895,0.0027780475
80.9425831,0.00261599694
82.179668,0.00248433078
83.3351397,0.00237591116
84.4906114,0.00228006396
85.6360604,0.00219625824
86.761464,0.00212382245
88.0157307,0.00205369231
89.2699973,0.0019938729
90.3359563,0.00195059684
91.4848625,0.00191130411
92.7806027,0.00187572729
94.4529582,0.0018429819
95.289136,0.00183205741
96.4145396,0.00182305285
97.5599886,0.00182064942
99.1006175,0.0018284292
99.999999,0.00183904407
100.000001,4.93810003
200.0,7.70468
500.0,3.69537
700.0,2.82409
1000.0,2.13351
2000.0,1.27465
5000.0,0.715154
7000.0,0.594487
10000.0,0.491546
20000.0,0.337503
50000.0,0.20276
70000.0,0.163028
100000.0,0.136197
200000.0,0.09812279
300000.0,0.0774482
400000.0,0.068045
500000.0,0.0613413
700000.0,0.0505252
1000000.0,0.0428026
1300000.0,0.0372969
1500000.0,0.03379861
1800000.0,0.0291265
2000000.0,0.0258281
2250000.0,0.022197
2500000.0,0.019373
2750000.0,0.0164519
3000000.0,0.0139356
3200000.0,0.0122964
3400000.0,0.0108156
3600000.0,0.00947932
3800000.0,0.00827664
4000000.0,0.007194179
4200000.0,0.00623026
4400000.0,0.005373971
4600000.0,0.004617239
4800000.0,0.00394896
5000000.0,0.00358591
5500000.0,0.002479299
6000000.0,0.00171224
7000000.0,0.000982928
8000000.0,0.000708495
9000000.0,0.000708739
10000000.0,0.000794879
11000000.0,0.000903389
12000000.0,0.000945549
13000000.0,0.000968844
14000000.0,0.000929899
15000000.0,0.000785563
16000000.0,0.000675032
17000000.0,0.00060855
18000000.0,0.000500059
19000000.0,0.000402806
20000000.0,0.000320686
