energy [eV],cross section [b]
1e-05,4.01696451
1.06255792e-05,3.89692177
1.15639481e-05,3.7354672
1.21895273e-05,3.63835072
1.28933765e-05,3.53764836
1.36754955e-05,3.43499776
1.44576144e-05,3.34079382
1.52397334e-05,3.25393825
1.61197079e-05,3.16387567
1.75864528e-05,3.0290669
1.90531978e-05,2.91014114
2.07646268e-05,2.78763511
2.25983978e-05,2.67213973
2.44321688e-05,2.56990446
2.59605945e-05,2.49310558
2.74890203e-05,2.42280441
2.97816589e-05,2.32768144
3.24567581e-05,2.22969477
3.43676445e-05,2.16682132
3.62785308e-05,2.10898328
3.81894171e-05,2.05554253
4.17729931e-05,1.96539652
4.41620437e-05,1.91149602
4.65510944e-05,1.86180002
4.92390532e-05,1.81026907
5.222592e-05,1.75774117
5.67062203e-05,1.68687392
6.15602249e-05,1.61900382
6.71616383e-05,1.55002009
7.27630517e-05,1.48916395
7.69645444e-05,1.44794682
8.16332541e-05,1.4059323
8.86363187e-05,1.349249
9.33050284e-05,1.31505959
9.91419973e-05,1.27576041
0.000104978966,1.23978622
0.000110815935,1.20669313
0.000116652904,1.17611603
0.000123950467,1.14096903
0.000131248031,1.10879572
0.000138545594,1.0791991
0.000150404981,1.03577833
0.000164090448,0.991645106
0.000177775916,0.952711603
0.000193744409,0.912606001
0.000210854415,0.874795525
0.00022796442,0.841326094
0.000242225401,0.81618394
0.000256486382,0.793168987
0.000277877853,0.762027954
0.000293923109,0.740936512
0.000311752639,0.719437026
0.00032958217,0.699706635
0.0003474117,0.681515312
0.000378617509,0.652826051
0.000400908553,0.634417498
0.000423199597,0.617483249
0.000459425125,0.592639255
0.00050122858,0.567387617
0.000543032034,0.545111096
0.000591809188,0.522163935
0.000626651858,0.507439818
0.000678915861,0.487516935
0.000718117901,0.474023409
0.00076167931,0.460268831
0.000827021424,0.441712038
0.000870582833,0.43051922
0.000925044688,0.417653584
0.000979506543,0.405876469
0.0010339684,0.395042559
0.00108843025,0.385032325
0.00115652019,0.373526013
0.00125865509,0.358050303
0.00136079,0.344351368
0.0014884823,0.329249763
0.00161617459,0.315975282
0.00175451778,0.303262211
0.00186094775,0.294462534
0.0020205927,0.282590573
0.00219355373,0.271220705
0.00232661586,0.26335076
0.00245967798,0.256128395
0.0025927401,0.249469411
0.0027424504,0.242564551
0.00290880889,0.235526106
0.00307516737,0.229066822
0.00324152585,0.223111392
0.00353269174,0.213719173
0.00384467172,0.204864439
0.00415665169,0.197026321
0.00454669894,0.188385636
0.00493674619,0.180790374
0.0053593275,0.173516332
0.00568442713,0.168481416
0.00600952675,0.163860799
0.00649717619,0.157591451
0.00690362604,0.152881931
0.00751330082,0.146547737
0.00791975068,0.142737656
0.00837705385,0.138786891
0.00913928858,0.132873248
0.00964744507,0.129326449
0.0101556016,0.126049303
0.0111085716,0.120521276
0.0120615416,0.115662075
0.0130939994,0.111008376
0.0142854327,0.106278313
0.0154768661,0.102105535
0.0163705331,0.0992793608
0.0173635782,0.0963985069
0.0188531459,0.0925118388
0.0204669594,0.0887895416
0.0217084959,0.0862130547
0.0229500324,0.083848572
0.0241915689,0.0816685279
0.0267302926,0.0776933248
0.0295908778,0.0738423159
0.0310211704,0.0721197941
0.0329617904,0.0699644248
0.0358727204,0.067065498
0.0387836504,0.064499391
0.0424229874,0.0616705241
0.0448492121,0.0599790698
0.048488549,0.0576840636
0.051521892,0.0559600545
0.0560719065,0.0536412948
0.0606219209,0.0515887435
0.0644143024,0.0500468652
0.0682066839,0.0486354347
0.0719990655,0.0473370376
0.075791447,0.0461373496
0.0805328026,0.0447583563
0.0876448359,0.0429036323
0.0923861915,0.0417879908
0.0977207658,0.0406311497
0.106612455,0.0388995371
0.115504145,0.0373719265
0.125879156,0.0357983108
0.133290271,0.0347885858
0.144406943,0.0334223354
0.157378111,0.0320149357
0.166643721,0.0311118626
0.180542137,0.029889919
0.190967022,0.0290623007
0.202551182,0.0282186611
0.214135342,0.0274444311
0.225719502,0.0267305861
0.238753024,0.0259903737
0.26047735,0.0248823781
0.274960234,0.024217828
0.289443118,0.0236037926
0.316603559,0.0225679902
0.343764,0.021657482
0.373189909,0.0207854553
0.395827805,0.0201818429
0.429784649,0.0193674635
0.466573852,0.0185874969
0.494876468,0.0180476043
0.523179083,0.0175521221
0.565633005,0.016879817
0.601017832,0.0163747621
0.636402659,0.015912421
0.671787485,0.0154870919
0.707172312,0.0150940847
0.773531159,0.0144311091
0.817770391,0.0140346764
0.862009623,0.0136691503
0.939438528,0.0130926479
1.02240246,0.012549091
1.1053664,0.0120678981
1.17451582,0.0117063981
1.27823996,0.0112201455
1.38196411,0.010789673
1.46841691,0.0104662707
1.55486972,0.0101702037
1.68454892,0.00976955688
1.78181835,0.00949817138
1.88990438,0.00922150596
1.99799042,0.00896757753
2.10607646,0.00873343048
2.29525207,0.00836410433
2.43038466,0.00812708507
2.56551725,0.00790901781
2.78512336,0.00758903652
3.03854393,0.00726372622
3.2919645,0.00697666922
3.58766098,0.00668088792
3.79888393,0.00649104987
4.11571836,0.00623411617
4.35336866,0.00606004938
4.61744629,0.00588257056
5.01356274,0.00564304939
5.27764037,0.00549853093
5.60779859,0.00533236504
5.93795682,0.00518020871
6.26811504,0.00504019323
6.8046604,0.00483469303
7.42382182,0.00462570532
7.8365961,0.00450029979
8.24937038,0.00438438339
9.0234656,0.00418874355
9.79756083,0.00401665077
10.6362238,0.00385171518
11.2814227,0.00373747424
11.9266216,0.0036325736
12.89442,0.00349014245
13.7010682,0.00338306635
14.9110404,0.00323892952
15.7176885,0.00315215665
16.6252611,0.00306211704
18.1380068,0.00292721367
19.1465039,0.00284622329
20.1550009,0.00277133306
22.0462835,0.00264487136
23.937566,0.00253356023
25.9866015,0.00242681399
28.3511428,0.00231816208
30.7156842,0.00222217362
32.4892728,0.00215708462
34.4600892,0.0020906699
37.4163137,0.00200095829
40.6191186,0.00191492171
43.0830957,0.00185530155
45.5470728,0.00180054003
48.0110499,0.00175001224
50.7833096,0.00169758362
53.8638518,0.0016441089
58.4846652,0.00157192712
61.5652075,0.0015283793
65.416599,0.0014783268
71.1936864,0.00141104491
76.9707738,0.00135156999
84.1934715,0.00128617561
89.0086033,0.00124721017
96.231301,0.00119458634
102.251331,0.00115531588
111.281377,0.00110300989
117.301407,0.00107193784
124.074639,0.00104014181
131.601072,0.0010083148
139.127505,0.000979796203
146.653938,0.000954279586
154.62751,0.000930265289
167.258577,0.000898135039
175.679288,0.000880569061
184.1,0.000866060744
191.13972,0.000856335831
200.39,0.000847078344
208.535,0.000842541409
216.68,0.00084184192
224.825,0.000845619809
228.8975,0.000849461769
235.113939,0.000858264749
242.186969,0.000873391025
247.491742,0.000889080033
251.29625,0.000903090853
257.405,0.000931423887
261.4775,0.000955134979
266.3645,0.000989905663
270.437,0.00102531315
273.963785,0.00106176124
275.86157,0.00108398619
278.582,0.00111953351
280.211,0.00114315615
282.71966,0.00118344272
285.97766,0.00124398041
288.356,0.0012951263
290.48999,0.00134693222
292.218444,0.00139361887
293.946898,0.00144513158
296.19149,0.00152031513
297.99968,0.00158877284
300.05222,0.00167651089
301.42058,0.00174184162
303.37538,0.00184623891
305.05325,0.00194790214
306.275,0.00203006117
306.99176,0.0020818375
307.62707,0.00213013444
308.89769,0.00223413279
309.985048,0.00233182308
310.889142,0.00241989339
311.703643,0.0025051255
312.791,0.00262857109
313.6055,0.00272906754
314.42,0.00283721071
315.21821,0.00295137124
316.448105,0.00314511217
317.370526,0.0033065263
318.423268,0.00351017351
319.520806,0.00374787397
320.086884,0.0038819818
320.652961,0.00402481333
321.139625,0.00415516703
321.7505,0.00432955951
322.77677,0.00465272012
323.11886,0.00476978693
323.80304,0.00501961127
324.14513,0.00515299935
324.821165,0.00543493358
325.489055,0.00573990706
325.9859,0.00598583348
326.4746,0.00624530831
327.14249,0.00663128676
327.7778,0.0070362854
328.4294,0.0074954613
329.11358,0.00803244855
329.7326,0.00857413769
330.0584,0.0088833098
330.3842,0.00921079149
330.71,0.00955805889
331.0358,0.0099267401
331.3616,0.0103186343
331.6874,0.010735734
332.0132,0.01118025
332.339,0.0116546415
332.6648,0.0121616499
332.9906,0.0127043385
333.3164,0.0132861392
333.8051,0.0142407395
334.1309,0.0149382725
334.4567,0.0156907117
334.7825,0.0165039813
334.9454,0.0169354998
335.2712,0.0178529579
335.597,0.0188499668
335.9228,0.0199360071
336.2486,0.0211220158
336.5744,0.0224206634
336.9002,0.0238466946
337.266725,0.0256248219
337.511075,0.0269261496
337.63325,0.0276152487
337.8776,0.0290772478
337.999775,0.0298532046
338.244125,0.031503483
338.3663,0.0323815465
338.61065,0.0342539094
338.732825,0.0352528287
338.93645,0.0370194898
339.09935,0.0385320621
339.3437,0.0409841418
339.5066,0.0427535418
339.75095,0.0456342053
339.91385,0.0477220901
340.1582,0.0511374396
340.3211,0.0536251465
340.56545,0.0577162779
340.72835,0.0607128718
340.8098,0.0623005033
340.9727,0.0656706944
341.05415,0.0674604315
341.21705,0.0712690477
341.37995,0.0754130632
341.54285,0.0799330738
341.6243,0.0823484638
341.7872,0.0875227684
341.9501,0.0932050254
342.113,0.0994640029
342.2759,0.106380515
342.4388,0.114050046
342.6017,0.122586067
342.68315,0.127220404
342.7646,0.132124256
342.84605,0.137318942
342.9275,0.142827932
343.00895,0.148677114
343.0904,0.154895094
343.17185,0.161513553
343.2533,0.168567646
343.33475,0.176096474
343.456925,0.188376572
343.5791,0.20199358
343.66055,0.211912243
343.742,0.222582828
343.82345,0.234083321
343.9049,0.246502085
343.98635,0.259939563
344.0678,0.274510317
344.14925,0.290345472
344.2307,0.307595684
344.31215,0.326434727
344.352875,0.336511749
344.413963,0.352527519
344.47505,0.369717369
344.515775,0.381887023
344.597225,0.408104898
344.678675,0.437124478
344.7194,0.452811332
344.80085,0.486833512
344.841575,0.505303401
344.8823,0.524846406
344.923025,0.545547275
344.984113,0.578976213
345.024837,0.603001131
345.065562,0.628555002
345.106288,0.65577032
345.167375,0.700034904
345.2081,0.732084686
345.269188,0.784453164
345.309912,0.822553088
345.371,0.885129678
345.411725,0.930902549
345.432087,0.955132682
345.472813,1.00652069
345.493175,1.03378449
345.5339,1.09174418
345.554262,1.12256948
345.594988,1.18826985
345.635712,1.25991126
345.656075,1.29818602
345.6968,1.38015814
345.717162,1.42408589
345.757888,1.51847182
345.77825,1.56922127
345.818975,1.67865589
345.839337,1.73771357
345.87599,1.85215911
345.916715,1.99308549
345.949295,2.11772454
345.97373,2.21902907
345.99002,2.29065228
346.0226,2.44468957
346.05518,2.61477416
346.08776,2.80320896
346.12034,3.01272402
346.13663,3.12638028
346.161065,3.30928158
346.177355,3.44025511
346.193645,3.57913778
346.209935,3.72657717
346.23437,3.96536466
346.25066,4.13749272
346.275095,4.41740165
346.291385,4.62002576
346.31582,4.9510178
346.33211,5.19174856
346.356545,5.58697568
346.372835,5.87593821
346.38098,6.02885336
346.39727,6.35304286
346.405415,6.52497344
346.421705,6.89031539
346.42985,7.08452564
346.44614,7.49823556
346.454285,7.71871531
346.470575,8.18964789
346.47872,8.44131313
346.49501,8.98042558
346.503155,9.26938609
346.519445,9.89035991
346.52759,10.2242805
346.54388,10.944366
346.56017,11.7423849
346.572387,12.3988916
346.584605,13.1113061
346.59275,13.6204518
346.600895,14.1594212
346.613112,15.0289746
346.621258,15.6532487
346.629402,16.3166011
346.637547,17.0223031
346.645692,17.773969
346.653838,18.5755984
346.661983,19.4316258
346.670128,20.3469771
346.678272,21.3271343
346.686418,22.3782105
346.694563,23.5070364
346.702707,24.72126
346.710852,26.0294627
346.718998,27.4412942
346.72307,28.1894163
346.731215,29.777512
346.73936,31.499126
346.743432,32.4145535
346.751577,34.3648179
346.759723,36.4894741
346.763795,37.6234772
346.77194,40.0489281
346.780085,42.7054451
346.784157,44.1291307
346.792303,47.1871488
346.796375,48.8302626
346.80452,52.3690907
346.810629,55.26577
346.816737,58.3931627
346.822846,61.7742927
346.828955,65.4347634
346.835064,69.403032
346.841172,73.7106957
346.847281,78.3927803
346.851354,81.7411475
346.855426,85.2854974
346.862553,92.0000013
346.866626,96.1540845
346.870698,100.55807
346.873753,104.034833
346.877825,108.915814
346.881897,114.093237
346.88597,119.585184
346.890042,125.410106
346.894115,131.586581
346.898188,138.132988
346.90226,145.067074
346.907351,154.304916
346.913459,166.26276
346.919364,178.755996
346.925066,191.698315
346.929953,203.46586
346.936469,220.060796
346.944614,242.027817
346.962533,292.119409
346.969049,309.269773
346.973936,321.050116
346.977194,328.193482
346.980452,334.646414
346.98371,340.307921
346.986968,345.084266
346.990226,348.892552
346.993484,351.664133
346.996742,353.347604
347.0,353.911137
347.003258,353.343965
347.006516,351.656893
347.009774,348.881785
347.013032,345.070081
347.01629,340.290456
347.019548,334.625834
347.022806,328.169973
347.026064,321.02388
347.030951,309.239851
347.037467,292.085345
347.055386,241.986627
347.061902,224.314091
347.068418,207.478075
347.074934,191.654749
347.079821,180.508511
347.085523,168.307276
347.091631,156.187817
347.095704,148.642064
347.099776,141.508227
347.103849,134.770583
347.107921,128.411891
347.111994,122.41402
347.116066,116.758438
347.120139,111.426587
347.126247,103.995911
347.13032,99.3944135
347.134392,95.0549735
347.140501,89.002153
347.144574,85.2491415
347.148646,81.7053551
347.154755,76.7532128
347.160864,72.200867
347.166972,68.0108489
347.173081,64.1493056
347.17919,60.5857175
347.187335,56.2506677
347.191407,54.2452675
347.199552,50.5263661
347.203625,48.8012334
347.21177,45.5934376
347.215843,44.1013581
347.223988,41.3196252
347.232133,38.7827289
347.236205,37.5976115
347.24435,35.378969
347.252495,33.3445677
347.256568,32.3903826
347.264712,30.5972013
347.272857,28.9446787
347.27693,28.1667544
347.285075,26.6996712
347.29322,25.3414656
347.301365,24.0818982
347.30951,22.9118729
347.317655,21.8232918
347.3258,20.8089301
347.333945,19.8623285
347.34209,18.9777006
347.350235,18.1498521
347.362453,17.004449
347.370598,16.2991061
347.378742,15.6360995
347.39096,14.7138994
347.399105,14.1430817
347.40725,13.6044159
347.419467,12.851643
347.431685,12.1589513
347.447975,11.3182931
347.464265,10.5610469
347.47241,10.2103313
347.4887,9.55888472
347.496845,9.25608945
347.513135,8.6917693
347.52128,8.42861212
347.53757,7.93665924
347.545715,7.70655994
347.562005,7.27519159
347.57015,7.07287183
347.58644,6.69259418
347.60273,6.34199783
347.610875,6.1768799
347.627165,5.86531024
347.6516,5.44014454
347.66789,5.18175073
347.692325,4.82720347
347.708615,4.6105884
347.724905,4.40817146
347.741195,4.21874335
347.76563,3.95661506
347.78192,3.79515527
347.79821,3.64334548
347.8145,3.5004343
347.83079,3.36574184
347.84708,3.23865169
347.86337,3.11860403
347.87966,3.00508947
347.91224,2.79584298
347.94482,2.60765861
347.9774,2.43780806
348.00998,2.28398999
348.04256,2.1442524
348.071068,2.03221799
348.095502,1.94301806
348.12401,1.84616553
348.160663,1.73190741
348.181025,1.6729489
348.22175,1.5637028
348.262475,1.46480187
348.282838,1.41882801
348.323562,1.333134
348.364288,1.25496488
348.38465,1.21843017
348.425375,1.14998317
348.4661,1.08713893
348.506825,1.02930287
348.54755,0.975957218
348.588275,0.926649323
348.629,0.880982135
348.669725,0.838606191
348.71045,0.799212941
348.751175,0.762529135
348.7919,0.72831209
348.832625,0.696345679
348.87335,0.66643692
348.914075,0.638413067
348.975163,0.599576736
349.015887,0.575620629
349.056613,0.553071208
349.097337,0.531820535
349.138062,0.511770823
349.178787,0.492833317
349.219512,0.474927303
349.2806,0.449843274
349.36205,0.419374019
349.402775,0.405286956
349.484225,0.379160966
349.52495,0.367035034
349.586037,0.349908188
349.647125,0.333952515
349.728575,0.314321437
349.7693,0.305148695
349.85075,0.287967968
349.891475,0.279916695
349.972925,0.264795088
350.054375,0.250866672
350.0951,0.244311086
350.17655,0.231948109
350.298725,0.215092192
350.380175,0.204855908
350.50235,0.190819757
350.5838,0.182249256
350.705975,0.170437649
350.787425,0.163190391
350.9096,0.153157198
350.99105,0.146974332
351.0725,0.141158856
351.15395,0.135682243
351.2354,0.130518685
351.31685,0.125644781
351.3983,0.121039277
351.47975,0.116682834
351.64265,0.10864814
351.80555,0.101417125
351.96845,0.0948861297
352.13135,0.0889676797
352.29425,0.0835875452
352.45715,0.0786824062
352.62005,0.0741979837
352.7015,0.0720986744
352.8644,0.0681596963
353.0273,0.0645360955
353.1902,0.0611951026
353.27165,0.0596214952
353.516,0.0552499842
353.76035,0.0513444453
354.0047,0.0478409751
354.24905,0.0446862573
354.4934,0.0418355261
354.6563,0.0400850023
354.90065,0.0376597523
355.06355,0.0361641466
355.267175,0.0344177356
355.511525,0.0324855153
355.755875,0.03071307
356.000225,0.0290832722
356.244575,0.0275812283
356.36675,0.0268739856
356.733275,0.0249100134
357.0998,0.0231563669
357.4256,0.0217506078
357.5885,0.0210959888
357.9143,0.0198737774
358.2401,0.0187565278
358.5659,0.017732568
358.8917,0.0167918034
359.2175,0.0159254684
359.5433,0.0151259215
359.8691,0.0143864767
360.1949,0.0137012638
360.5207,0.0130651119
360.8465,0.0124734514
361.1723,0.0119222325
361.4981,0.0114078556
361.8239,0.0109271126
362.3126,0.0102628737
362.6384,0.00985431776
362.9642,0.00947059139
363.4529,0.00893730125
363.9416,0.00844962655
364.57691,0.00787562132
365.057465,0.0074812066
365.5706,0.00709349889
366.0593,0.00675307534
366.43397,0.00650934493
367.06928,0.00612693022
367.501729,0.00588677412
368.0141,0.00562126271
368.510945,0.00538176082
369.345808,0.00501482349
370.19696,0.00468088886
370.88114,0.00443802466
371.22323,0.00432426062
371.90741,0.00411067691
372.860375,0.00384104542
373.630077,0.00364412711
374.479194,0.00344585332
375.045271,0.00332358483
375.825155,0.00316681986
376.629474,0.0030179673
377.551895,0.00286155412
378.166843,0.00276492176
378.78179,0.00267385577
379.58,0.0025632689
380.3945,0.0024585138
381.209,0.00236116268
381.933905,0.00228019206
382.65881,0.00220411404
384.014952,0.00207361247
385.10231,0.00197888741
386.37293,0.00187798497
387.725,0.00178080844
389.354,0.00167584566
390.62462,0.00160198807
391.89524,0.00153429315
393.2636,0.0014675143
394.63196,0.00140638051
396.00032,0.00135026742
397.36868,0.00129863458
398.68817,0.00125264879
400.223502,0.00120334801
401.319005,0.00117067081
402.414507,0.00113989036
404.043507,0.00109731661
405.644,0.00105884764
406.83317,0.00103221068
409.21151,0.000983367704
412.16,0.000929940695
414.6035,0.000890739359
416.778215,0.000859167177
420.036215,0.00081688634
421.934,0.000794674768
425.192,0.000760106474
427.6355,0.000736769338
430.48625,0.000711970128
432.5225,0.000695676311
436.595,0.000666173254
438.63125,0.000652783954
442.70375,0.000628350588
448.420578,0.000598527614
453.941444,0.000573768849
460.246155,0.000549381273
467.13875,0.000526511414
473.2475,0.000508903302
477.32,0.000498319819
485.465,0.000479457314
493.61,0.000463126927
501.755,0.00044882586
509.9,0.000436173879
517.966793,0.000424981769
526.033586,0.000414899676
534.100379,0.000405752935
550.233965,0.000389734086
570.400947,0.000372989196
592.402054,0.000357758963
610.369764,0.000347083357
637.321329,0.000333320899
664.272894,0.00032164545
682.240604,0.000314783377
718.176024,0.000302834914
751.871724,0.000293384705
785.567425,0.000285310537
808.031226,0.000280580888
852.958827,0.000272469651
897.886428,0.000265917121
924.138124,0.000262723245
976.641517,0.000257592571
1002.89321,0.000255608818
1055.39661,0.000252719285
1107.9,0.000251194764
1140.12242,0.000250914417
1175.23512,0.000251173675
1210.34783,0.000252030237
1263.01688,0.00025448133
1298.12958,0.000256946523
1333.24228,0.000260143084
1368.35498,0.000264155588
1403.46768,0.000269103835
1441.31124,0.000275682792
1479.1548,0.000283866169
1504.38384,0.000290445467
1529.61288,0.000298162702
1542.2274,0.000302536862
1567.45644,0.000312559623
1592.68548,0.000324738313
1611.8875,0.000335929077
1631.65,0.000349769518
1644.825,0.000360694759
1651.4125,0.000366785865
1664.5875,0.000380488848
1671.175,0.000388233132
1677.7625,0.000396680241
1684.35,0.000405929221
1694.23125,0.000421569828
1700.81875,0.000433390329
1707.40625,0.000446538243
1713.99375,0.000461240437
1720.58125,0.000477775301
1727.16875,0.000496487468
1733.75625,0.000517807686
1738.3675,0.000534569382
1742.32,0.000550335506
