energy [eV],cross section [b]
1e-05,237.879387
1.09524644e-05,227.30076
1.19049288e-05,218.018534
1.29380321e-05,209.133067
1.37342863e-05,202.980245
1.45305405e-05,197.34037
1.57249218e-05,189.697924
1.6723417e-05,183.947682
1.77219122e-05,178.690532
1.87204074e-05,173.859804
1.97189026e-05,169.400803
2.15970579e-05,161.867458
2.28491614e-05,157.369916
2.41012649e-05,153.227576
2.62974425e-05,146.689861
2.86526314e-05,140.531798
3.10078202e-05,135.089392
3.29767432e-05,130.994479
3.59301276e-05,125.495311
3.88835121e-05,120.635227
4.13525228e-05,116.978457
4.38215335e-05,113.635261
4.62905442e-05,110.563242
4.87595549e-05,107.727616
5.18556709e-05,104.46211
5.49517868e-05,101.476626
5.80479028e-05,98.7333042
6.11440188e-05,96.201082
6.50265188e-05,93.2849761
7.08502688e-05,89.3688606
7.66740189e-05,85.9078547
8.39769461e-05,82.0874885
9.12798734e-05,78.7353047
9.9201092e-05,75.5264064
0.000105306293,73.3043761
0.000114464094,70.3108665
0.000124397227,67.4453115
0.000132053091,65.4610322
0.000139708955,63.6421779
0.000147364819,61.966971
0.000155992942,60.2288714
0.000165593322,58.4569046
0.000175193703,56.8326627
0.000184794084,55.3366984
0.00020163306,52.9756689
0.00021969124,50.7517473
0.000237749419,48.7862778
0.000260394205,46.6167315
0.00028303899,44.7130612
0.000307600963,42.8907616
0.00032653186,41.6288939
0.000345462757,40.4722255
0.000373859103,38.9048548
0.000397598269,37.7255517
0.000421337434,36.6473759
0.0004450766,35.6566541
0.000468815765,34.742169
0.000513468797,33.1971746
0.000543237485,32.2747856
0.000573006173,31.4252441
0.000625220169,30.0844419
0.000681214647,28.821502
0.000737209125,27.7053344
0.000784020155,26.8655205
0.000854236698,25.7377126
0.000924453242,24.7409728
0.000983153828,23.9910174
0.00104185441,23.3053721
0.00112990529,22.3789019
0.00119606058,21.7512081
0.00126967055,21.1112837
0.00134328053,20.5247087
0.00141689051,19.9844598
0.0014998486,19.4239284
0.00159215482,18.8524752
0.00173061413,18.0826165
0.0018807959,17.3456652
0.00205442257,16.5965328
0.00222804925,15.9367709
0.0024310756,15.2568203
0.0025762264,14.8207997
0.0027939526,14.2316323
0.00304854572,13.6244366
0.00323056344,13.2350705
0.00341258116,12.8772873
0.00359459888,12.5470361
0.00382284738,12.1667195
0.00405109587,11.819016
0.00427934437,11.4995163
0.00450759286,11.2046026
0.00493692503,10.706356
0.00536625719,10.2691701
0.00583193813,9.85067245
0.00637031659,9.42525828
0.00690869505,9.05059627
0.00753823552,8.66447059
0.0079883165,8.41686675
0.00866343798,8.08229595
0.00917067711,7.85562124
0.00973507439,7.62453049
0.0105816703,7.31320736
0.0111460676,7.12566942
0.0118538164,6.90970166
0.0125615652,6.71225432
0.0132693141,6.5308233
0.0144208181,6.26470021
0.0157520835,5.99418015
0.017083349,5.75593444
0.0186400336,5.51040034
0.0203094279,5.27912697
0.0219788222,5.07473302
0.0236394111,4.89329627
0.0253,4.73003123
0.0269959257,4.5790953
0.0293113072,4.39458004
0.0310613801,4.2690306
0.0328114531,4.15366609
0.034561526,4.04718007
0.0378533883,3.86727796
0.0400479631,3.75987502
0.042242538,3.66095576
0.0460918014,3.50483774
0.0502197654,3.35778926
0.0543477295,3.22783327
0.0595241571,3.08438788
0.0629751089,2.99875072
0.0681515366,2.88270913
0.0724789974,2.79540101
0.0789701885,2.67815651
0.0854613797,2.57454168
0.0908879744,2.49658386
0.0963145691,2.42531344
0.101741164,2.35982617
0.107167759,2.2993802
0.113972657,2.22977328
0.124180004,2.1363012
0.130984902,2.0801559
0.13865399,2.02190533
0.151453907,1.93473274
0.164253824,1.85796574
0.179221112,1.77885639
0.189921761,1.72813128
0.205972735,1.6595952
0.224741572,1.58896948
0.238160085,1.54368503
0.258287853,1.48250128
0.273410453,1.44105318
0.290237141,1.39880168
0.307063828,1.36007668
0.323890515,1.32441382
0.342854112,1.28741621
0.374504871,1.23205415
0.395605377,1.198903
0.416705883,1.16830691
0.456395635,1.1166256
0.496085386,1.07128919
0.539135411,1.02790204
0.572315792,0.997865545
0.622086363,0.957411166
0.676070685,0.918698831
0.717678568,0.891900408
0.75928645,0.867342704
0.821698274,0.834076338
0.856553705,0.817106796
0.926264568,0.786098573
0.978440458,0.765100486
1.03040183,0.745801137
1.12854394,0.713071546
1.19397201,0.693542073
1.25940008,0.67556282
1.37416029,0.647203746
1.49722956,0.620512928
1.62029883,0.596943729
1.72318395,0.579223844
1.87751165,0.555448361
2.03183934,0.534458583
2.16085631,0.518681522
2.28987329,0.504270616
2.48339875,0.484820469
2.62880027,0.471659085
2.79058633,0.458256378
2.95237239,0.445985794
3.11415845,0.434698039
3.39792966,0.416912901
3.60080784,0.405529693
3.80368603,0.395086476
4.13376787,0.379800604
4.51537884,0.364307003
4.89698981,0.350705287
5.34321783,0.336737048
5.82175436,0.323633754
6.3002909,0.31210394
6.70034441,0.303464895
7.10039792,0.295597388
7.7004782,0.285019525
8.15133661,0.277892226
8.65299991,0.270663295
9.40549487,0.260992504
9.90715818,0.255209914
10.5816591,0.248144056
11.5479906,0.239215901
12.8179131,0.229211174
14.0012055,0.221291262
15.5789288,0.212377574
16.802,0.206506446
18.334,0.200183052
19.9919944,0.194399572
21.4605559,0.190038005
23.4853478,0.184997323
24.8628719,0.182118352
26.92852,0.178515601
28.62904,0.176116156
30.719938,0.173785734
32.888,0.172021897
35.92136,0.170572398
37.2219352,0.170295854
39.5352552,0.170302903
42.41704,0.171210408
45.61126,0.173436452
47.442,0.175338688
49.5690267,0.17818381
52.0933556,0.182557421
53.98364,0.186647121
55.23988,0.189806968
56.4808,0.193317188
57.95152,0.198037858
59.5448,0.203933846
60.5763466,0.208245557
62.05728,0.215216896
63.2216,0.221435811
64.4472,0.228793764
65.6728,0.237112415
66.8984,0.246550096
68.124,0.257301078
69.3496,0.269605738
69.9624,0.276431702
71.188,0.291653384
71.8008,0.300155431
72.4136,0.309334285
73.0264,0.31926252
73.6392,0.330022873
74.5584,0.347934482
75.1712,0.361220716
75.7198817,0.374156646
76.3326817,0.389907529
76.7032,0.40016978
77.1628,0.413753159
77.8522,0.436102806
78.3118,0.452481876
79.0012,0.479597378
79.4608,0.499597848
79.9204,0.521347408
80.38,0.545057078
80.6864,0.56207143
81.146,0.589609321
81.6056,0.619849324
82.0652,0.653158902
82.3716,0.67728105
82.678,0.703104985
83.1376,0.745397827
83.5972,0.792541538
84.0568,0.845311811
84.3632,0.88407305
84.6696,0.926073747
84.8228,0.948403485
85.1292,0.995980237
85.4356,1.04783682
85.742,1.10450508
85.8952,1.13483274
86.2016,1.19990728
86.508,1.27153542
86.8144,1.35063195
86.9676,1.39331108
87.274,1.48569786
87.4272,1.53575523
87.657,1.61622812
87.8102,1.67379557
88.04,1.76665754
88.2698,1.86820036
88.4996,1.9795449
88.7294,2.10199929
88.9592,2.23709763
89.189,2.38664868
89.4188,2.55279696
89.6486,2.73810051
89.8784,2.94563047
89.955,3.02036659
90.1082,3.17909972
90.2614,3.35135042
90.4146,3.53870228
90.4912,3.63860021
90.6444,3.85210788
90.721,3.96628368
90.8742,4.21106436
90.9508,4.34238061
91.104,4.62486776
91.1806,4.77694247
91.3338,5.10531405
91.4104,5.28277317
91.5636,5.6675516
91.6785,5.98528078
91.7551,6.21260949
91.8317,6.45349929
91.9466,6.84270243
92.0232,7.12256986
92.0998,7.42038745
92.2147,7.90425275
92.2913,8.25420622
92.3679,8.62842758
92.4828,9.24036581
92.5594,9.68593538
92.636,10.1651313
92.7509,10.9546954
92.8275,11.5341775
92.9041,12.161622
92.9807,12.8424731
93.0573,13.5829699
93.1339,14.3902892
93.2105,15.2727194
93.2871,16.2398743
93.3637,17.3029548
93.4403,18.4750737
93.4786,19.1067407
93.5552,20.4722072
93.58584,21.0600281
93.63946,22.1519321
93.68542,23.1574124
93.72372,24.0489264
93.76968,25.1888664
93.80032,25.994746
93.83096,26.840163
93.89224,28.6603318
93.92288,29.6410205
93.98416,31.7604321
94.0148,32.9067996
94.07608,35.3946663
94.12204,37.4511808
94.15268,38.9237036
94.18332,40.4850428
94.22928,43.009685
94.25992,44.8265418
94.29056,46.7611743
94.33652,49.9069436
94.36716,52.1839537
94.3978,54.6204587
94.44376,58.6079818
94.4744,61.5137583
94.50504,64.6408426
94.53568,68.0121674
94.56632,71.6536956
94.59696,75.5949104
94.6276,79.8693996
94.65824,84.5155558
94.68888,89.5774176
94.71952,95.1056873
94.73484,98.0626905
94.76548,104.403322
94.79612,111.375068
94.81144,115.123849
94.84208,123.207532
94.87272,132.165507
94.88804,137.011811
94.91102,144.791401
94.92634,150.347695
94.94932,159.294179
94.9723,169.05299
94.99528,179.723863
95.0106,187.40066
95.03358,199.856644
95.05656,213.57458
95.07954,228.72706
95.10252,245.516443
95.1255,264.181038
95.14848,285.002779
95.15614,292.4789
95.17146,308.31679
95.17912,316.709003
95.19444,334.52336
95.20976,353.83483
95.22508,374.809362
95.23274,385.978203
95.24806,409.808709
95.2634357,435.922509
95.2787,464.284469
95.29402,495.490687
95.30934,529.785484
95.32466,567.563081
95.33998,609.276915
95.3553,655.449107
95.36296,680.391647
95.37445,720.358847
95.38211,748.838884
95.38977,778.902221
95.39743,810.655531
95.40892,861.706315
95.41658,898.202056
95.42807,956.976023
95.43573,999.058702
95.44722,1066.92681
95.45488,1115.58162
95.46637,1194.1288
95.47786,1279.92885
95.48935,1373.65938
95.50084,1476.01815
95.5085,1549.39506
95.51616,1627.11487
95.52765,1752.23694
95.53531,1841.57479
95.54297,1935.78831
95.549864,2024.80226
95.559056,2149.70463
95.571312,2326.99992
95.57744,2419.99138
95.589696,2613.59805
95.632592,3323.83263
95.644848,3511.82265
95.65404,3639.14109
95.660168,3715.30934
95.666296,3783.15593
95.672424,3841.58615
95.678552,3889.60708
95.68468,3926.36716
95.690808,3951.19235
95.7,3965.09401
95.706128,3958.54557
95.712256,3939.4532
95.718384,3908.17647
95.724512,3865.294
95.73064,3811.57725
95.736768,3747.95693
95.742896,3675.48475
95.749024,3595.29321
95.758216,3463.10195
95.770472,3270.73559
95.804176,2709.22281
95.82256,2415.58401
95.834816,2232.47417
95.847072,2061.33326
95.8532,1980.46978
95.86086,1883.84996
95.87235,1748.11914
95.88384,1623.10484
95.8915,1545.45977
95.90299,1437.07551
95.91065,1369.91485
95.91831,1306.58867
95.92597,1246.88892
95.93363,1190.61048
95.94129,1137.55353
95.94895,1087.52517
95.95661,1040.34058
95.96427,995.823702
95.97193,953.807603
95.97959,914.134638
95.98725,876.656381
95.99491,841.233441
96.00257,807.735177
96.01406,760.831359
96.02172,731.62741
96.02938,703.954437
96.0447,652.823758
96.06002,606.746758
96.06768,585.412296
96.083,545.813931
96.09066,527.428655
96.10598,493.212784
96.11364,477.283855
96.12896,447.562385
96.13662,433.689912
96.15194,407.74098
96.1596,395.599277
96.17492,372.833724
96.18258,362.15637
96.1979,342.091111
96.20556,332.659114
96.22088,314.896095
96.22854,306.528553
96.24386,290.738128
96.26684,269.19264
96.28216,256.102668
96.30514,238.151285
96.32046,227.19131
96.34344,212.091499
96.35876,202.831223
96.37408,194.154104
96.3894,186.013016
96.40472,178.365418
96.42004,171.172838
96.43536,164.400419
96.45068,158.01653
96.466,151.992418
96.48132,146.301905
96.49664,140.92112
96.51196,135.82826
96.5426,126.428237
96.57324,117.961466
96.60388,110.309563
96.6192,106.75721
96.64984,100.144171
96.68048,94.1221275
96.71112,88.6232474
96.72644,86.0514064
96.75708,81.2302031
96.7724,78.9690835
96.80304,74.7193243
96.81836,72.7211277
96.849,68.9564858
96.86432,67.1822105
96.91028,62.2495552
96.95624,57.8382608
97.0022,53.8777153
97.04816,50.3088164
97.0788,48.1222271
97.12476,45.0993138
97.1554,43.2390324
97.20136,40.6565708
97.232,39.0609915
97.27796,36.8376858
97.3086,35.4590393
97.33924,34.156187
97.36988,32.9236918
97.41584,31.1961381
97.44648,30.1187625
97.50776,28.1247064
97.56904,26.3220967
97.63032,24.6872536
97.6916,23.2000405
97.76054,21.6820589
97.82948,20.308344
97.8831,19.3282264
97.9597,18.0467183
97.998,17.4532896
98.0746,16.3511051
98.1129,15.8388245
98.1895,14.884071
98.2278,14.4388208
98.3044,13.6063826
98.3427,13.2169827
98.4193,12.4868658
98.4959,11.8158299
98.5342,11.5004994
98.6108,10.9067232
98.7257,10.0991008
98.8023,9.60977973
98.9172,8.94026202
98.9938,8.53230379
99.0704,8.15184562
99.147,7.79647521
99.2236,7.46403878
99.3002,7.15260858
99.3768,6.86045498
99.4534,6.5860226
99.53,6.32790966
99.6066,6.08485014
99.6832,5.85569831
99.7598,5.63941529
99.8364,5.43505733
99.913,5.24176554
100.0662,4.88531636
100.2194,4.56457841
100.296,4.41613218
100.4492,4.14055567
100.5641,3.95078414
100.679,3.77403871
100.8322,3.55665028
100.9854,3.35795458
101.1386,3.17587373
101.2918,3.0086105
101.3684,2.9300395
101.5216,2.78213972
101.5982,2.71249325
101.828,2.51906729
102.0578,2.34633338
102.2876,2.1914508
102.5174,2.05204959
102.6706,1.96672021
102.9004,1.84885483
103.1302,1.74182414
103.36,1.64434481
103.5132,1.58411555
103.743,1.50018971
103.8962,1.44814777
104.126,1.37538468
104.2792,1.33011699
104.5856,1.24656418
104.7388,1.20796613
105.0452,1.13643944
105.3516,1.07168126
105.5048,1.04157823
105.8112,0.985468791
106.1176,0.934291392
106.424,0.887488496
106.7304,0.844579075
106.8836,0.824451954
107.19,0.78661859
107.4964,0.75173583
107.8028,0.719507485
108.1092,0.689673571
108.4156,0.662005131
108.722,0.636299896
109.0284,0.612378644
109.3348,0.590082123
109.6412,0.56926844
109.9476,0.54981084
110.254,0.531595816
110.7136,0.506383057
111.2498,0.479814561
111.9392,0.449544878
112.3988,0.431473094
113.0882,0.407087674
113.5478,0.392429844
114.2372,0.37252858
114.6968,0.360496032
115.3096,0.345807407
115.9224,0.332496989
116.5352,0.320404548
117.148,0.309392531
117.7608,0.299342328
118.3736,0.29015123
119.449908,0.275823683
120.5184,0.263556765
121.4376,0.254321515
122.6632,0.243609925
123.8888,0.234445578
125.1144,0.226578704
126.34,0.219808953
127.5656,0.213974172
129.34272,0.206909749
130.6296,0.202666148
131.8552,0.199204761
133.44848,0.195437763
134.9192,0.192598224
136.78824,0.189746964
138.04448,0.188246778
139.33136,0.187017221
141.90512,0.185378359
144.724,0.184661344
147.91822,0.184996282
149.78905,0.185687625
152.00866,0.186936315
155.47864,0.189746662
158.512,0.193002785
162.77096,0.198769608
167.36696,0.206533702
170.95184,0.213722892
175.364,0.224011259
178.94888,0.233631826
182.066392,0.243003422
183.988943,0.249287657
187.834046,0.263122073
190.43888,0.273546603
192.186,0.281062754
194.7308,0.292830828
196.2896,0.300557381
197.8484,0.308708328
200.1866,0.321792869
201.7454,0.331134032
204.0836,0.34616155
207.2012,0.368308517
208.76,0.380391081
211.0982,0.399927711
212.657,0.413984013
214.9952,0.436791805
216.554,0.453262606
218.8922,0.48009627
220.451,0.49955706
222.7892,0.531409024
224.348,0.554622192
226.6862,0.592817891
229.0244,0.635646173
231.3626,0.683888865
232.142,0.7013323
233.7008,0.738501798
235.54211,0.786753788
236.499328,0.813911394
237.5978,0.847008146
238.7669,0.88470247
239.936,0.925191249
241.1051,0.968759448
242.2742,1.01572947
243.36536,1.06295944
244.30064,1.10630861
245.23592,1.15255388
246.48296,1.21918254
247.73,1.29215299
248.97704,1.37230136
250.22408,1.46060654
251.47112,1.55822045
252.71816,1.66650601
253.9652,1.78708518
254.58872,1.85257732
255.21224,1.92190029
255.83576,1.99535985
256.45928,2.07329286
257.0828,2.15607117
257.70632,2.24410601
258.32984,2.33785312
259.26512,2.49030694
259.88864,2.60067639
260.51216,2.71879754
261.13568,2.84541427
262.07096,3.05312337
262.69448,3.2048657
263.62976,3.45520826
264.25328,3.63918334
264.56504,3.73685837
265.18856,3.94465465
265.81208,4.17065493
266.12384,4.29115115
266.74736,4.54865155
267.05912,4.6863314
267.68264,4.981439
267.9944,5.13971253
268.61792,5.48007473
269.08556,5.75831186
269.5532,6.05852198
270.02084,6.38306061
270.48848,6.73460358
270.95612,7.11619995
271.42376,7.53133526
271.8914,7.98400733
272.20316,8.30888681
272.51492,8.65401432
272.98256,9.21342021
273.29432,9.61696461
273.60608,10.047504
274.07372,10.7492872
274.38548,11.2584858
274.69724,11.8043982
275.009,12.3905557
275.32076,13.020912
275.63252,13.6999029
275.94428,14.432516
276.25604,15.2243712
276.5678,16.0818155
276.87956,17.0120326
277.19132,18.0231717
277.50308,19.1244975
277.81484,20.3265668
278.1266,21.6414337
278.28248,22.3454013
278.59424,23.8559449
278.906,25.5176542
279.06188,26.4111705
279.37364,28.337032
279.52952,29.3753793
279.76334,31.0364733
279.91922,32.2182319
280.15304,34.1123643
280.30892,35.4624516
280.54274,37.6304319
280.77656,39.9854616
281.01038,42.5468303
281.2442,45.3358063
281.47802,48.3757325
281.71184,51.6920677
281.86772,54.0700317
282.0236,56.5916746
282.25742,60.6632281
282.4133,63.5838562
282.56918,66.6804935
282.803,71.6759734
282.95888,75.2531695
283.11476,79.0376403
283.27064,83.0366512
283.50446,89.4495286
283.707104,95.4161582
283.956512,103.27602
284.081216,107.411382
284.330624,116.056005
284.580032,125.11524
285.265904,150.680646
285.45296,157.270529
285.640016,163.404115
285.827072,168.902507
285.951776,172.125944
286.07648,174.935611
286.201184,177.28434
286.325888,179.130796
286.450592,180.441202
286.575296,181.190821
286.68753,181.373747
286.824704,180.960313
286.949408,179.983832
287.074112,178.453696
287.198816,176.397822
287.32352,173.852739
287.448224,170.862013
287.572928,167.474478
287.697632,163.74239
287.884688,157.616132
288.134096,148.740658
288.819968,122.991468
289.069376,113.948006
289.318784,105.346318
289.443488,101.239838
289.692896,93.4480034
289.89554,87.5433832
290.12936,81.2060796
290.28524,77.2584916
290.44112,73.5255142
290.597,69.9993863
290.83082,65.0789052
290.9867,62.03081
291.14258,59.1573436
291.3764,55.1536961
291.53228,52.675337
291.68816,50.3390344
291.92198,47.0821528
292.1558,44.0981033
292.38962,41.3615587
292.62344,38.8493448
292.85726,36.5403814
293.09108,34.4155752
293.24696,33.0927612
293.48078,31.2374173
293.7146,29.5239676
294.02636,27.4377695
294.33812,25.5535212
294.494,24.6795989
294.80576,23.0548565
294.96164,22.2992505
295.242545,21.0244079
295.58516,19.6065957
295.89692,18.4331009
296.20868,17.3584516
296.52044,16.3722695
296.8322,15.4654484
297.14396,14.6299804
297.45572,13.8588078
297.76748,13.1456962
298.07924,12.4851261
298.54688,11.5822237
298.85864,11.0327491
299.1704,10.5209016
299.63804,9.81660562
299.9498,9.38522164
300.26156,8.98139934
300.7292,8.42248498
301.19684,7.91388923
301.66448,7.44986284
302.13212,7.02544283
302.59976,6.6363289
303.0674,6.27878153
303.53504,5.94953769
304.15856,5.54968724
304.47032,5.36488174
305.09384,5.02230253
305.4056,4.86339545
306.02912,4.56783358
306.65264,4.29902061
306.9644,4.1736687
307.7438,3.8839762
308.5232,3.62445317
309.14672,3.43588015
309.77024,3.26234639
310.082,3.18073917
310.70552,3.02698846
311.6408,2.81776242
312.26432,2.69099365
312.88784,2.57331599
313.51136,2.4639199
314.13488,2.36208499
314.7584,2.26716866
315.38192,2.17859637
316.00544,2.09585329
316.62896,2.01847715
317.25248,1.94605206
317.876,1.87820315
318.49952,1.81459195
319.12304,1.75491237
319.74656,1.69888715
320.9936,1.59681708
322.24064,1.50663345
323.48768,1.42688872
324.73472,1.35638073
325.35824,1.3242711
326.60528,1.26579702
327.69644,1.22043312
329.09936,1.16935433
330.3464,1.13024475
331.39441,1.10163516
332.357575,1.07858699
333.802323,1.04957103
334.765488,1.03379955
335.728653,1.02081463
336.691818,1.01058353
338.136565,1.00039155
339.09973,0.997070731
340.544477,0.9974519
341.507642,1.00142524
342.95239,1.01331983
343.915555,1.02548611
344.87872,1.04132703
345.841885,1.06114894
346.80505,1.08532361
347.768215,1.11430037
348.924013,1.15618266
349.501912,1.18036257
350.079811,1.20692309
351.042976,1.25701215
351.813508,1.3029277
352.198774,1.32804606
352.969306,1.38305379
353.354572,1.41314696
354.125104,1.47909107
354.895636,1.55361188
355.280902,1.59447422
356.051434,1.68430779
356.4367,1.73369554
357.014599,1.81403477
357.399865,1.8721629
357.977764,1.96698059
358.36303,2.03578887
358.940929,2.14840052
359.326195,2.23041237
359.904094,2.3651605
360.28936,2.46370435
360.867259,2.62636062
361.445158,2.8093421
362.023057,3.01601896
362.21569,3.09086096
362.600956,3.25049064
362.793589,3.33566171
363.178855,3.51778174
363.371488,3.61520498
363.756754,3.82410172
363.949387,3.93616719
364.334653,4.17719258
364.527286,4.30689855
364.912552,4.58680028
365.105185,4.73794619
365.490451,5.06532181
365.779401,5.33523889
366.06835,5.62870566
366.3573,5.94847858
366.549933,6.17781932
366.742566,6.42130232
367.031515,6.81561331
367.224148,7.09979185
367.416781,7.40272713
367.609414,7.72606551
367.802047,8.07163397
