energy [eV],cross section [b]
1e-05,29689.906
1.05942715e-05,28845.2435
1.11885429e-05,28068.8052
1.23770859e-05,26687.2216
1.34803883e-05,25571.9061
1.42159232e-05,24901.6386
1.49514581e-05,24281.4627
1.62296034e-05,23305.8356
1.75951702e-05,22383.2964
1.8960737e-05,21562.312
2.06509108e-05,20661.2214
2.17776933e-05,20119.6969
2.34678671e-05,19381.7606
2.48624955e-05,18830.4142
2.69544381e-05,18085.0781
2.90463807e-05,17421.7915
3.07725243e-05,16926.2201
3.24986678e-05,16470.6784
3.42248114e-05,16050.0524
3.59509549e-05,15660.0986
3.80874176e-05,15214.6621
4.12921116e-05,14612.5019
4.34285743e-05,14248.6497
4.58189648e-05,13872.1133
4.97854422e-05,13308.2311
5.37519195e-05,12807.9842
5.8346974e-05,12293.5086
6.16198694e-05,11962.716
6.65292125e-05,11513.0855
7.2216551e-05,11050.6676
7.62674417e-05,10753.3477
8.23437778e-05,10349.2164
8.68761343e-05,10075.8053
9.18899566e-05,9797.24332
9.69037789e-05,9540.5952
0.000101917601,9303.13104
0.000107527338,9057.39144
0.000116835814,8689.38968
0.000129247116,8262.02336
0.000140768297,7917.0356
0.000152289478,7611.99081
0.000164723554,7319.39143
0.000178983419,7022.13101
0.000193243283,6758.42699
0.000203879757,6580.02529
0.000215646129,6398.26692
0.000233295686,6151.87766
0.000245062058,6002.63006
0.000259625397,5832.15448
0.000274188736,5675.45638
0.000288752075,5530.77548
0.000303315414,5396.65104
0.000321340584,5243.45139
0.000339365753,5102.63483
0.000357390923,4972.61915
0.000386571047,4781.76661
0.000420035908,4587.88663
0.000453500769,4415.90506
0.000492268887,4239.05241
0.000519882052,4125.35369
0.000561301798,3970.8257
0.000592196905,3866.29324
0.000626373956,3759.80237
0.000677639532,3615.45962
0.000732967197,3477.02701
0.000775268426,3381.35801
0.000817569655,3293.22724
0.000859870884,3211.69537
0.000907199795,3127.33452
0.00095955639,3041.39876
0.00103809128,2924.92728
0.00109044788,2854.38941
0.00115525008,2773.83237
0.00125245339,2664.96353
0.0013496567,2568.11387
0.00146996607,2461.8568
0.00155017232,2398.02382
0.00167048169,2311.07068
0.00176975366,2246.13057
0.0019186616,2158.3818
0.00206756954,2080.33627
0.0021904393,2022.05474
0.00231330906,1968.50565
0.00243617882,1919.08385
0.00255904858,1873.28718
0.00271112554,1821.00177
0.00293924098,1750.37092
0.00326146989,1663.61724
0.00354381033,1597.62255
0.00382615076,1539.1396
0.00415323436,1479.06451
0.00450268954,1422.33449
0.00485214473,1371.91991
0.00539429818,1303.75096
0.0057902786,1260.21891
0.0061839873,1221.21467
0.00654087948,1188.99599
0.00689777166,1159.35574
0.0076539742,1103.67878
0.00809570272,1074.90416
0.00853743124,1048.44348
0.00947338961,998.77192
0.0102934864,961.090092
0.0113869488,917.517442
0.0124019896,882.51523
0.0134170304,851.713965
0.0145124992,822.319792
0.015350049,802.100448
0.0166063738,774.835238
0.0179622449,748.859616
0.0189988876,731.020893
0.0205538515,707.009839
0.0215904941,692.57248
0.0230529,674.0222
0.02417645,661.031098
0.02601137,641.830591
0.0283107962,620.741915
0.0314869087,595.972758
0.0349389197,573.536504
0.0386668292,553.355869
0.0409371681,542.723859
0.0433699473,532.49727
0.0458027264,523.320538
0.0482355055,515.06203
0.0525033805,502.473313
0.0561735722,493.289401
0.0603606196,484.363672
0.0659060664,474.672892
0.0690995616,470.032578
0.077619888,460.441311
0.081456025,457.261442
0.089128299,452.685957
0.0960708021,450.337075
0.106849441,449.57769
0.114674989,450.970914
0.123413931,454.277414
0.132289675,459.41272
0.141028617,466.153659
0.151098764,475.967605
0.162875972,490.262666
0.171614914,502.908739
0.182157322,520.620268
0.193462269,542.841586
0.202201211,562.53454
0.210940153,584.653997
0.215309624,596.703128
0.224048566,622.967122
0.232787508,652.411403
0.237156979,668.451989
0.243711186,694.325087
0.250265392,722.573964
0.254634863,742.85204
0.263373805,787.268699
0.272112747,837.512237
0.276482218,865.114793
0.283036424,910.011541
0.287405896,942.505557
0.291775367,977.261002
0.296144837,1014.48221
0.302699044,1075.44379
0.307068515,1119.8881
0.313622722,1193.01892
0.317992192,1246.5955
0.323454031,1319.70555
0.32891587,1400.50027
0.334377709,1490.054
0.339839548,1589.62818
0.345383707,1702.47947
0.350763225,1825.05046
0.354040328,1906.87049
0.357317432,1994.71904
0.359502167,2056.91257
0.36277927,2156.10404
0.366056373,2262.98307
0.369333477,2378.29919
0.37261058,2502.88253
0.375887683,2637.65124
0.379164787,2783.61862
0.38244189,2941.89963
0.385718993,3113.71574
0.388996096,3300.39726
0.3922732,3503.38127
0.396096487,3762.85327
0.399919774,4049.17811
0.402104509,4225.86572
0.404289245,4412.67524
0.40647398,4610.08057
0.408658716,4818.52509
0.410843451,5038.40356
0.413028187,5270.03961
0.417179184,5743.23932
0.419800867,6064.45931
0.422422549,6402.44647
0.425044232,6756.10767
0.428012095,7173.06359
0.440774328,9036.85615
0.444269904,9504.50086
0.446891587,9819.44837
0.448639375,10006.9973
0.450387164,10173.3433
0.452134952,10315.8716
0.453882741,10432.2439
0.455630529,10520.4942
0.457378317,10579.1167
0.459126106,10607.1362
0.460873894,10604.1572
0.463495577,10542.1828
0.465243365,10463.9091
0.466991154,10357.8903
0.469612836,10151.5278
0.473108413,9801.72878
0.477477884,9277.47267
0.489712403,7648.06399
0.49320798,7211.38854
0.494955768,7004.62733
0.498451345,6617.82541
0.500199133,6438.72956
0.502820816,6188.80073
0.505879445,5926.17051
0.508064181,5757.78203
0.510248917,5605.31744
0.512433652,5468.60851
0.514618387,5347.43036
0.516803123,5241.52481
0.518987859,5150.61843
0.521172594,5074.43594
0.52274348,5028.60761
0.52456755,4984.64405
0.52672873,4945.23479
0.528455206,4923.49071
0.530616386,4908.28164
0.53321227,4907.3884
0.53537345,4920.8609
0.53753463,4947.00721
0.53969581,4985.56676
0.541640872,5030.62752
0.544234288,5105.46906
0.545963232,5164.36053
0.54942112,5302.27
0.554607952,5552.44762
0.567575032,6268.92374
0.57103292,6431.33212
0.573626336,6529.63678
0.576219752,6601.60869
0.577948696,6632.50478
0.57967764,6648.29876
0.581406584,6648.05045
0.583135528,6631.12209
0.584864472,6597.20663
0.586593416,6546.34109
0.58832236,6478.90387
0.590915776,6348.29038
0.593509192,6185.57802
0.596102608,5995.41294
0.598696024,5783.12586
0.603018384,5395.29215
0.611663104,4575.87276
0.616849936,4103.25209
0.620307824,3807.58904
0.623765712,3530.57332
0.6272236,3273.32207
0.63046537,3050.23591
0.63370714,2844.23078
0.63586832,2716.01859
0.63911009,2536.69246
0.64127127,2425.35266
0.64451304,2269.85126
0.64667422,2173.37986
0.6488354,2082.28987
0.65099658,1996.26859
0.654015363,1884.02772
0.656176543,1808.95175
0.65856071,1730.8733
0.66072189,1664.12107
0.66396366,1570.63234
0.66612484,1512.41065
0.6704472,1404.90733
0.67476956,1308.11485
0.67909192,1220.74597
0.68341428,1141.68137
0.68773664,1069.94881
0.68989782,1036.56369
0.69422018,974.281237
0.69854254,917.422485
0.7028649,865.391601
0.70502608,841.021529
0.70934844,795.278849
0.71150962,773.800134
0.71583198,733.387554
0.71799316,714.366493
0.7244767,661.57605
0.73096024,614.482623
0.73744378,572.299825
0.74176614,546.577052
0.74824968,511.171258
0.75473322,479.147966
0.76121676,450.08982
0.76553912,432.187382
0.77202266,407.307531
0.77634502,391.918431
0.78282856,370.451717
0.78715092,357.125973
0.79147328,344.522033
0.79795682,326.858499
0.80444036,310.549885
0.80876272,300.36265
0.81740744,281.472455
0.82605216,264.35439
0.83469688,248.793278
0.8433416,234.605737
0.85198632,221.634698
0.86063104,209.744989
0.86927576,198.819769
0.87792048,188.757613
0.8865652,179.470129
0.89520992,170.879991
0.90385464,162.919314
0.91249936,155.528299
0.92114408,148.6541
0.9297888,142.249875
0.93843352,136.273979
0.94707824,130.689289
0.96004532,122.974138
0.96869004,118.229724
0.97733476,113.774563
0.99030184,107.584839
1.00321467,101.949728
1.016236,96.7426524
1.03352544,90.4795882
1.04217016,87.5973098
1.0594596,82.2754024
1.06810432,79.8162018
1.08539376,75.2582435
1.09403848,73.1442961
1.11132792,69.212834
1.11997264,67.3833851
1.13726208,63.9704798
1.1459068,62.3775424
1.15887388,60.1179901
1.17184096,58.0027487
1.18480804,56.0200698
1.1999363,53.8604318
1.2215481,51.0338546
1.24168741,48.6439211
1.26710505,45.9221041
1.2863835,44.0512961
1.3079953,42.1296005
1.3296071,40.373745
1.3512189,38.7659372
1.3836366,36.5985193
1.4052484,35.2973718
1.4268602,34.0981136
1.448472,32.9909938
1.4700838,31.9674045
1.4916956,31.019725
1.5133074,30.1411895
1.5349192,29.3257759
1.5781428,27.863386
1.6213664,26.59596
1.66459,25.4939684
1.7078136,24.5333871
1.7510372,23.694524
1.7942608,22.9611271
1.8374844,22.3196997
1.90216895,21.5075541
1.9455434,21.0488909
2.0103788,20.4734721
2.0536024,20.1544643
2.1184378,19.7605839
2.1832732,19.4563798
2.2264968,19.2979553
2.2697204,19.1718933
2.33363742,19.040068
2.37686102,18.9851534
2.4426148,18.950667
2.529062,18.9890625
2.6155092,19.1160352
2.7019564,19.3268296
2.7884036,19.618803
2.91397551,20.1862521
3.0045216,20.7026491
3.0477452,20.9819234
3.1341924,21.6067685
3.2206396,22.3248453
3.289,22.963461
3.34280015,23.5131393
3.3966003,24.1070275
3.45844315,24.8480711
3.56346926,26.2636866
3.62531211,27.1998547
3.67489312,28.0113098
3.7676574,29.6911243
3.86042167,31.6101394
3.92226453,33.0422206
3.98410737,34.6131673
4.03048951,35.8925863
4.07687165,37.2677411
4.10779308,38.2421896
4.16963592,40.343208
4.20055735,41.476593
4.2624002,43.9284602
4.29332162,45.2557452
4.35516447,48.1381691
4.41700733,51.36375
4.45595678,53.5960015
4.5097716,56.9707005
4.55615374,60.1844466
4.60253588,63.7202474
4.64891801,67.622425
4.69530015,71.9432767
4.72622158,75.0866212
4.757143,78.4646267
4.80352514,84.0249282
4.83444656,88.1015471
4.86536799,92.5117386
4.8808287,94.8534475
4.91175013,99.8360209
4.94267155,105.256497
4.97359297,111.167933
4.98905369,114.326573
5.01997511,121.092554
5.05089654,128.522154
5.08181796,136.705454
5.11273939,145.748397
5.14056867,154.725107
5.17149009,165.765981
5.20241152,178.099718
5.22714866,189.037796
5.23951723,194.906596
5.26425437,207.533722
5.27662294,214.332676
5.30136008,229.01648
5.31372865,236.953612
5.3322815,249.686247
5.35083436,263.512296
5.36938721,278.560847
5.38794007,294.980588
5.40649293,312.943478
5.42504578,332.649251
5.44359863,354.330948
5.46215149,378.261795
5.48070434,404.763771
5.4992572,434.218383
5.51781005,467.080304
5.52511234,481.064848
5.53692191,505.071927
5.54873148,530.953204
5.56110005,560.286622
5.56728434,575.886689
5.5796529,609.13429
5.59202147,645.384193
5.60439004,685.007005
5.61675862,728.431838
5.62912718,776.157637
5.64149575,828.767114
5.65386432,886.944003
5.6662329,951.494537
5.67860146,1023.37437
5.68478575,1062.41045
5.69097003,1103.72252
5.69715432,1147.48868
5.70643075,1218.17247
5.71261503,1268.9729
5.72189146,1351.3134
5.72807574,1410.71177
5.73735217,1507.36792
5.74353646,1577.37687
5.75281288,1691.79089
5.75899717,1775.03118
5.7682736,1911.71287
5.77445788,2011.63947
5.77755003,2064.51136
5.78373431,2176.57299
5.78682645,2235.98187
5.79301074,2362.15651
5.79610288,2429.18589
5.80228717,2571.85325
5.80537931,2647.80995
5.81156359,2809.84749
5.81465573,2896.31559
5.82084002,3081.22001
5.82393216,3180.12915
5.83011645,3392.17017
5.83630073,3625.14252
5.84248502,3881.71314
5.84557716,4019.78889
5.85176145,4317.64947
5.85794573,4647.66714
5.86103787,4826.07396
5.86413001,5014.20611
5.86722216,5212.71282
5.8703143,5422.29017
5.87340644,5643.68389
5.87649859,5877.69222
5.87959073,6125.16861
5.88268287,6387.02414
5.88577501,6664.22964
5.88886715,6957.81721
5.8919593,7268.88096
5.89505144,7598.57666
5.89814358,7948.11991
5.90123572,8318.78242
5.90432787,8711.88569
5.90896608,9346.60382
5.91205822,9801.82046
5.91669644,10536.2247
5.91978858,11062.1723
5.92442679,11908.6906
5.92906501,12827.3595
5.93463086,14027.9582
5.93957829,15184.9122
5.94452572,16421.9205
5.95194686,18403.5453
5.96555229,22183.5715
5.97049972,23474.2956
5.97421029,24359.149
5.976684,24894.7026
5.97915772,25377.5438
5.98163143,25800.0609
5.98410514,26155.2037
5.98657886,26436.7545
5.98905257,26639.5851
5.99152629,26759.8813
5.994,26795.3168
5.99647371,26745.1629
5.99894743,26610.3238
6.00142114,26393.2946
6.00389486,26098.0455
6.00636857,25729.8429
6.00884228,25295.0207
6.011316,24800.7212
6.01378971,24254.6228
6.01750028,23355.7505
6.02244771,22049.7338
6.03605314,18245.7322
6.04100057,16906.3057
6.04594799,15631.1945
6.05089542,14433.5158
6.05584285,13319.8898
6.06048106,12353.8914
6.06511928,11462.261
6.06975749,10642.135
6.07284963,10133.2005
6.07594178,9652.99373
6.07903392,9200.12938
6.08212606,8773.19377
6.0852182,8370.77329
6.08831035,7991.4756
6.09140249,7633.94521
6.09449463,7296.87445
6.09758677,6979.01091
6.10067892,6679.1621
6.10531713,6260.71151
6.10840927,6001.09307
6.11150141,5755.80885
6.11613963,5412.77817
6.11923177,5199.46224
6.12232391,4997.53451
6.12696213,4714.43266
6.13314641,4370.49486
6.13623855,4211.57025
6.14242284,3917.18297
6.14551498,3780.77617
6.15169927,3527.41335
6.15479141,3409.69384
6.16097569,3190.46002
6.16406784,3088.32673
6.17025212,2897.63175
6.17643641,2723.38069
6.17952855,2641.86197
6.18571283,2489.04237
6.19189712,2348.66287
6.19498926,2282.73544
6.20117355,2158.68519
6.20735783,2044.18108
6.21044997,1990.21497
6.21663426,1888.32671
6.22281854,1793.86334
6.22900283,1706.1389
6.23518711,1624.54282
6.2413714,1548.53041
6.24755569,1477.61482
6.25373997,1411.35994
6.25992425,1349.37437
6.26610854,1291.30614
6.27229283,1236.83811
6.27847711,1185.68406
6.28466139,1137.58514
6.29084568,1092.30689
6.30012211,1029.21823
6.30630639,990.10271
6.31249068,953.143623
6.3217671,901.416527
6.33413567,838.670557
6.34650425,782.182256
6.35887281,731.156213
6.3650571,707.476735
6.37742567,663.411932
6.38360995,642.894115
6.39597853,604.592389
6.40216281,586.703052
6.41143924,561.311991
6.42071566,537.524308
6.43308423,508.077344
6.43926852,494.248803
6.45163709,468.226623
6.46400566,444.200394
6.47018994,432.873225
6.48255851,411.478987
6.50111137,382.24169
6.51347994,364.44882
6.53203279,340.005954
6.54440137,325.056213
6.55676994,311.075701
6.5691385,297.983304
6.58769136,279.852613
6.60005993,268.677551
6.6124285,258.165724
6.62479707,248.266312
6.63716564,238.933256
6.64953421,230.124736
6.66190278,221.802713
6.67427135,213.932527
6.69900849,199.423855
6.72374563,186.376655
6.74848277,174.604289
6.77321991,163.949007
6.79795705,154.276768
6.81650991,147.598218
6.83506276,141.365763
6.85446968,135.282897
6.87526061,129.218423
6.89072132,124.98745
6.90618204,120.976675
6.93173206,114.793473
6.95191069,110.269562
6.97589777,105.266634
6.98979554,102.540285
7.01453777,97.9747536
7.03927999,93.7497545
7.06402221,89.8353708
7.10113555,84.4892056
7.13824888,79.7063875
7.17536221,75.4230039
7.21247555,71.585969
7.24711466,68.3687067
7.28670222,65.0841212
7.31639288,62.8754841
7.35598044,60.2496611
7.37577422,59.0684486
7.41536177,56.9636852
7.43515555,56.0401396
7.47474311,54.457827
7.49453688,53.8054853
7.52422755,53.0157332
7.55391822,52.4787108
7.573712,52.2822167
7.59350577,52.2361094
7.62319644,52.506305
7.64299022,52.9665611
7.65288711,53.2996103
7.67268089,54.2150603
7.68752622,55.1651586
7.69742311,55.9516658
7.70732,56.8828048
7.71721689,57.9821752
7.72711378,59.2786646
7.73701066,60.8078844
7.74690755,62.6140668
7.75680444,64.75259
7.76670133,67.2933664
7.774124,69.5156009
7.77907244,71.1729378
7.78402089,72.9894998
7.79144355,76.0538347
7.796392,78.3547683
7.80134044,80.8916759
7.80876311,85.20527
7.81371155,88.4711385
7.81866,92.0972012
7.82113422,94.0601191
7.82608267,98.3192529
7.82855689,100.630368
7.83350533,105.657067
7.83845378,111.285273
7.84340222,117.598909
7.84587644,121.042074
7.85082489,128.566137
7.85577333,137.035674
7.85948467,144.08212
7.86195889,149.140725
7.86443311,154.507479
7.86690733,160.198977
7.86938155,166.23144
7.87185578,172.620275
7.87433,179.379509
7.87680422,186.521077
7.87927844,194.053946
7.88150524,201.172273
7.88447431,211.162081
7.88843307,225.344504
7.8943712,248.273069
7.90822684,305.080811
7.9121856,320.104594
7.91515467,330.272129
7.91911342,341.758938
7.9210928,346.411085
7.92307218,350.226819
7.92604124,354.236642
7.92802062,355.694559
7.92990103,356.146288
7.93197938,355.57754
7.93395876,354.003367
7.93593813,351.45114
7.93791751,347.967476
7.93989689,343.614473
7.94187627,338.467008
7.94583502,326.133507
7.94880409,315.465571
7.95276284,299.95242
7.96364942,254.709944
7.96760818,238.764572
7.97156693,223.578866
7.97552569,209.31037
7.97948444,196.039108
7.98319578,184.524005
7.98690711,173.892835
7.99061845,164.112064
7.99432978,155.135449
7.996804,149.571659
8.00051533,141.815425
8.00298956,137.013114
8.00670089,130.321158
8.00917511,126.177598
8.01412356,118.585027
8.019072,111.825328
8.02154622,108.725632
8.02649467,103.028671
8.03144311,97.9326808
8.03639156,93.3640932
8.04134,89.2588432
8.04628845,85.5612731
8.05123689,82.2230814
8.05865956,77.7994772
8.063608,75.1882357
8.07103067,71.7042239
8.07597911,69.6338522
8.08340178,66.8542262
8.08835022,65.1924939
8.09329867,63.6659264
8.09824711,62.2612329
8.108144,59.7719268
8.11804089,57.6460377
8.12298934,56.6994943
8.13288622,55.0067458
8.14773156,52.8903513
8.16257689,51.1826069
8.17742222,49.7997639
8.18731911,49.02691
8.197216,48.3559515
8.21700978,47.2733594
8.23680356,46.4768288
8.25659734,45.9128243
8.27639111,45.5427111
8.29618489,45.3383674
8.32587556,45.2993256
8.34566934,45.431441
8.37536,45.8442562
8.40505067,46.4991585
8.43474134,47.3885429
8.4640442,48.4971466
8.48422578,49.397887
8.51391645,50.9368273
8.54360712,52.7481259
8.5634009,54.1196612
8.58814312,56.0353733
8.60298845,57.3007008
8.62278223,59.1345975
8.64139112,61.0242003
8.66,63.0889502
8.68375,66.0051059
8.7075,69.2740361
8.727,72.2551743
8.7489375,75.9706861
8.766,79.1571592
8.7855,83.1563979
8.805,87.5845379
8.8245,92.4995445
8.844,97.9698389
8.85375,100.938016
8.868375,105.713705
8.887875,112.754476
8.897625,116.597178
8.91225,122.812828
8.922,127.286503
8.93175,132.049915
8.9415,137.127861
8.956125,145.395554
8.965875,151.387077
8.9805,161.184157
8.99025,168.315932
9.004875,180.0341
9.014625,188.607659
9.02925,202.772272
9.039,213.195489
9.043875,218.733487
9.053625,230.523762
9.0658125,246.745085
9.073125,257.363902
9.0804375,268.721721
9.0853125,276.738013
9.092625,289.485335
9.0999375,303.175104
9.10725,317.901219
9.1145625,333.769452
9.121875,350.899271
9.1291875,369.42599
9.1365,389.503335
9.1438125,411.306473
9.151125,435.035656
9.1584375,460.920572
9.1633125,479.503756
9.1681875,499.249871
9.1755,531.264965
9.180375,554.366369
9.18525,579.018349
9.1925625,619.211532
9.1974375,648.381839
9.2023125,679.661123
9.2071875,713.252278
9.2120625,749.382461
9.2169375,788.306532
9.2218125,830.311046
9.2266875,875.718898
9.2315625,924.894743
9.2364375,978.251314
9.2413125,1036.25681
9.2461875,1099.44354
9.2510625,1168.41803
9.2535,1205.2884
9.25715625,1263.8396
9.25959375,1305.18929
9.26325,1370.97065
9.2656875,1417.50969
9.26934375,1491.6826
9.27178125,1544.25536
9.2754375,1628.20249
9.277875,1687.81517
9.28153125,1783.1855
9.2851875,1886.33155
9.28884375,1998.0397
9.29128125,2077.69611
9.2949375,2205.66287
9.29859375,2344.73856
9.30225,2496.07079
9.30590625,2660.92381
9.3095625,2840.68343
9.31321875,3036.85848
9.31565625,3177.56064
9.31809375,3326.7888
9.32175,3567.77445
9.32540625,3830.96339
9.3290625,4118.20098
9.3315,4323.93788
9.3339375,4541.64558
9.336375,4771.75543
9.34003125,5140.90664
9.3432,5484.54804
9.3471,5937.52936
9.351,6422.00851
9.3549,6934.09328
9.36855,8811.64249
9.371475,9188.48426
9.3744,9536.52447
9.37635,9747.39895
9.3783,9937.73017
9.38025,10104.5294
9.3822,10245.025
9.38415,10356.7683
9.3861,10437.7351
9.38805,10486.4135
9.39039,10500.9406
9.39195,10483.8083
9.3939,10432.5533
9.39585,10349.066
9.3978,10234.8838
9.39975,10092.0538
9.4017,9923.04396
9.40365,9730.64154
9.4056,9517.8469
9.408525,9167.22545
9.412425,8657.23587
9.42315,7169.55889
9.42705,6645.19227
9.43095,6145.80407
9.4329,5907.20609
9.4368,5454.18769
9.43996875,5110.66678
9.443625,4741.78414
9.4460625,4511.9139
9.4485,4294.48391
9.4509375,4089.05531
9.45459375,3802.32366
9.45703125,3624.66441
9.45946875,3457.15935
9.463125,3223.73553
