energy [eV],cross section [b]
1e-05,3.52292643
1.09520552e-05,3.36632283
1.15867586e-05,3.27282357
1.22214621e-05,3.18670596
1.33346566e-05,3.0507924
1.45284209e-05,2.92276816
1.57221851e-05,2.80961699
1.72190239e-05,2.68472193
1.82169164e-05,2.61015406
1.97137552e-05,2.50910534
2.0964994e-05,2.43307896
2.28418522e-05,2.3309766
2.40930911e-05,2.26964175
2.5503163e-05,2.20600529
2.70720681e-05,2.14112911
2.86409732e-05,2.08165948
3.02098783e-05,2.02688489
3.19779412e-05,1.97005487
3.49287725e-05,1.88500242
3.68959934e-05,1.83406182
3.88632142e-05,1.78703976
4.25632066e-05,1.70760101
4.6263199e-05,1.63789381
5.02763112e-05,1.57116527
5.33692122e-05,1.52495903
5.64621133e-05,1.48260345
6.11014648e-05,1.42520639
6.49795959e-05,1.38202236
7.07967924e-05,1.32402681
7.46749235e-05,1.28918777
7.90453471e-05,1.25304139
8.63394216e-05,1.19894429
9.12021379e-05,1.16654383
9.60648541e-05,1.13663574
0.000105210758,1.08610921
0.000114356662,1.04177237
0.000124276558,0.999330082
0.000135744437,0.95618637
0.000147212316,0.918187753
0.000155828062,0.892443505
0.000165414302,0.866197726
0.000179793662,0.830838051
0.000189379901,0.809536852
0.000201399909,0.785007726
0.000213419917,0.762581197
0.000225439924,0.741973082
0.000237459932,0.722950221
0.000252531596,0.701044687
0.000275139091,0.671625866
0.000290210755,0.653953413
0.000307195626,0.635617795
0.000335542744,0.608176499
0.000363889861,0.58400771
0.000397034849,0.559099679
0.000420730798,0.543127014
0.000456274721,0.521543276
0.000497834604,0.499299364
0.000527546513,0.485035106
0.000557258422,0.47192744
0.000586970331,0.459828065
0.00062422554,0.445895183
0.000661480749,0.433156605
0.000698735959,0.421450911
0.000735991168,0.410645664
0.000806061587,0.392391352
0.000852775201,0.381492721
0.000899488814,0.371454524
0.00098141895,0.355611922
0.00106927894,0.340688929
0.00115713894,0.327499597
0.00126730495,0.312941352
0.00134074896,0.304249436
0.00145091497,0.292470812
0.00154300504,0.283608887
0.00163509511,0.275506591
0.00172718519,0.268061255
0.00181927526,0.261188643
0.00193474529,0.253274573
0.00205021532,0.246038884
0.00216568534,0.239389888
0.00228115537,0.233252358
0.00249833395,0.222883655
0.00271551252,0.213785158
0.0029510703,0.205075448
0.00322338647,0.196221795
0.00349570265,0.188423984
0.00381410949,0.180387663
0.00404174428,0.175234246
0.00438319645,0.168270473
0.00463972736,0.163552483
0.00492515438,0.158742581
0.0053532949,0.15226243
0.00563872192,0.14835869
0.00599661355,0.143863388
0.00635450517,0.139753415
0.00671239679,0.135976692
0.00729466524,0.130436932
0.0079677957,0.124805618
0.00864092617,0.119845864
0.00942798683,0.114734409
0.0102720126,0.109919655
0.0111160383,0.10566425
0.0118215771,0.102462595
0.0125271159,0.0995353809
0.0135854241,0.0955798589
0.0148228554,0.0915033501
0.0157075174,0.0888892247
0.0165921793,0.0864870608
0.0174768413,0.0842696801
0.019140733,0.0805236517
0.0202499941,0.0782871071
0.0213592552,0.0762271346
0.0236069429,0.0725074572
0.0258443533,0.0692978272
0.0283494138,0.0661653025
0.0300934147,0.0642194428
0.0318374156,0.0624357437
0.0344534169,0.0600186094
0.0366401872,0.0582000211
0.0399203426,0.0557576822
0.0432004979,0.0535990785
0.0459424484,0.0519750017
0.0486843989,0.0504901377
0.0514263494,0.0491256709
0.0541682999,0.0478661636
0.0576063806,0.0464157935
0.0627635016,0.0444679663
0.0662015822,0.0432978684
0.0700760952,0.0420838618
0.0765425132,0.0402669646
0.0830089312,0.0386667402
0.0905698179,0.0370175691
0.095975232,0.0359600116
0.104083353,0.0345309415
0.113563808,0.0330581596
0.120341556,0.0321137143
0.130508178,0.0308374918
0.138146298,0.0299728439
0.14664479,0.029091351
0.155143282,0.0282833178
0.163641775,0.0275390771
0.173219071,0.0267669079
0.189203222,0.025611269
0.199859323,0.0249191196
0.210515424,0.0242802121
0.230557654,0.0232008446
0.250599884,0.0222537019
0.27233823,0.0213470295
0.289091949,0.0207192022
0.314222528,0.019873359
0.341479836,0.0190636573
0.362487012,0.0185029774
0.383494189,0.0179890214
0.415004953,0.0172925454
0.441345461,0.0167685337
0.467685968,0.0162894382
0.494026476,0.0158491882
0.520366983,0.0154428028
0.569908791,0.0147562554
0.602936662,0.0143463546
0.635964534,0.0139688138
0.693891503,0.013372964
0.756011054,0.012811698
0.818130604,0.0123156334
0.870057635,0.0119424053
0.947948182,0.0114411621
1.02583873,0.0109981468
1.09094907,0.0106648314
1.1560594,0.0103600853
1.25372491,0.00994828098
1.3271004,0.00966927912
1.40874104,0.00938483975
1.49038168,0.00912410241
1.57202232,0.00888394798
1.71521032,0.00850492442
1.817578,0.00826186662
1.91994568,0.00803851445
2.08649182,0.0077108934
2.27902721,0.00737785194
2.47156259,0.00708452165
2.69668542,0.00678221309
2.85762977,0.00658834924
3.09904631,0.0063263773
3.28042106,0.00614888628
3.48222619,0.00596793406
3.7849339,0.00572413975
3.98673903,0.00557727069
4.23977873,0.00540814166
4.49281843,0.0052535062
4.74585813,0.00511140551
5.15753872,0.00490296301
5.63346137,0.00469106633
5.95074314,0.00456414968
6.26802491,0.00444699225
6.86477546,0.00424905839
7.46152601,0.00407536188
8.10877785,0.00390907734
8.60761412,0.0037939269
9.10645039,0.00368836746
9.85470479,0.00354531254
10.4801863,0.00343767447
11.4184086,0.00329310696
12.0438901,0.00320625571
12.7487706,0.00311613944
13.9251901,0.00298125798
14.7094697,0.00290046536
15.4937493,0.00282588185
16.9688397,0.00269986712
17.9522333,0.00262462161
18.9356269,0.00255530995
20.6603827,0.0024459057
22.5099711,0.00234283399
24.3595595,0.00225172005
25.9056691,0.00218315694
27.4517787,0.00212046152
29.7709432,0.00203572589
32.4826361,0.00194837725
34.4212742,0.00189235088
36.3599123,0.00184085769
38.2985503,0.00179331667
41.9447836,0.00171297989
44.3756058,0.00166500122
46.806428,0.00162080015
49.5458205,0.00157492914
52.5937831,0.00152815168
57.1657272,0.0014651081
62.1245817,0.00140473136
67.8572571,0.00134332613
73.5899326,0.00128921486
77.8968561,0.00125253707
82.6889195,0.00121512909
89.8770145,0.00116470365
97.6734173,0.00111640004
103.682096,0.00108293121
109.690775,0.00105223501
115.699454,0.00102394709
122.470879,0.000994581079
130.00505,0.000964624183
141.306306,0.000924231812
153.563955,0.000885526245
167.734389,0.000846136924
181.904824,0.00081140377
198.473665,0.000775563034
210.319027,0.000752552947
228.087071,0.000721423128
248.862432,0.000689292887
263.715112,0.00066866053
285.994132,0.000640741599
302.518113,0.000622031591
320.713395,0.000603102237
338.908677,0.000585696247
357.103959,0.000569617978
379.590294,0.000551343104
414.617781,0.000525847871
449.645268,0.000503343517
490.601306,0.000480098008
534.52162,0.000458148801
578.441933,0.00043870353
615.155842,0.000424043265
670.226705,0.00040431185
725.297569,0.000386829969
771.332455,0.000373649702
817.367342,0.000361578233
863.402229,0.000350467713
909.437115,0.000340196695
967.159403,0.000328351418
1053.74283,0.00031241436
1111.46512,0.000302825598
1169.4359,0.000293909993
1227.65517,0.000285592343
1300.03207,0.00027603436
1429.83387,0.000260736594
1520.58592,0.000251222746
1656.71399,0.000238450056
1747.46604,0.000230784011
1881.46355,0.000220510622
1970.08503,0.000214311881
2147.328,0.000203119692
2248.01128,0.000197382285
2390.69333,0.000189910838
2533.37538,0.000183116531
2676.05743,0.000176911371
2818.73948,0.00017122288
2928.31534,0.000167166877
3162.00964,0.000159311145
3410.24651,0.000151985463
3534.36494,0.000148662111
3731.40967,0.0001437944
4054.2594,0.000136764759
4305.86939,0.000131985291
4625.34599,0.000126665213
5003.4617,0.000121291923
5372.3499,0.000116868941
5633.1874,0.000114165497
5932.2216,0.000111450339
6377.5032,0.000108086278
6691.99813,0.000106150139
6967.56051,0.000104726625
7359.92053,0.000103108295
7713.348,0.000102035896
7935.9888,0.000101538761
8381.2704,0.000100942599
8892.84359,0.000100895339
9383.154,0.000101483354
9884.0958,0.000102735123
10218.057,0.000103948944
10527.4101,0.000105357417
10812.1551,0.000106907765
11275.6008,0.000109988778
11720.8824,0.000113662311
12166.164,0.000118123597
12388.8048,0.000120683839
12611.4456,0.00012348576
12834.0864,0.00012654857
13056.7272,0.000129894044
13279.368,0.000133546891
13502.0088,0.000137535192
13844.2415,0.000144394833
14061.368,0.000149259139
14281.2516,0.000154640322
14503.8924,0.000160606103
14726.5332,0.000167151223
14949.174,0.000174344204
15171.8148,0.00018226465
15394.4556,0.000191005445
15617.0964,0.000200675464
15728.4168,0.000205898149
15951.0576,0.0002172097
16062.378,0.000223339896
16285.0188,0.000236667229
16396.3392,0.000243918476
16618.98,0.00025975191
16730.3004,0.000268406025
16897.281,0.000282424864
17064.2616,0.000297832901
17254.9068,0.000317364262
17342.5626,0.000327123451
17453.883,0.000340302094
17620.8636,0.000361892598
17787.8442,0.000385966682
17954.8248,0.000412919047
18121.8054,0.000443226602
18233.1258,0.000465577281
18344.4462,0.000489877699
18400.1064,0.000502830775
18511.4268,0.000530505225
18567.087,0.000545299164
18678.4074,0.000577003612
18734.0676,0.000594005258
18845.388,0.000630563912
18901.0482,0.000650236644
19012.3686,0.000692696579
19068.0288,0.000715632508
19179.3492,0.000765340167
19262.8395,0.000806363144
19318.4997,0.000835702268
19374.1599,0.000866781225
19457.6502,0.000916973805
19513.3104,0.00095305076
19568.9706,0.000991428246
19624.6308,0.00103230678
19680.291,0.00107590924
19735.9512,0.00112248396
19791.6114,0.00117230825
19875.1017,0.0012538271
19930.7619,0.00131321848
19986.4221,0.00137712539
20069.9124,0.00148249977
20125.5726,0.00155989718
20181.2328,0.00164375829
20236.893,0.00173482534
20292.5532,0.00183395033
20348.2134,0.00194211507
20403.8736,0.00206045564
20459.5338,0.0021902924
20515.194,0.00233316705
20570.8542,0.00249088862
20598.6843,0.00257596932
20648.7785,0.00274077843
20687.7406,0.00288041197
20721.1367,0.00300896076
20748.9668,0.00312291454
20782.363,0.00326859064
20804.627,0.00337155605
20849.1552,0.00359292441
20871.4193,0.00371202295
20904.8154,0.00390228332
20938.2115,0.00410780211
20971.6076,0.00433025503
21005.0038,0.0045715538
21038.3999,0.00483388712
21074.579,0.00514474457
21110.7581,0.0054869601
21148.3288,0.00588020612
21167.8098,0.00610114311
21187.2909,0.00633488803
21206.0762,0.00657335637
21225.5573,0.00683528539
21245.7341,0.00712355514
21265.2152,0.00741967004
21284.6963,0.00773476479
21305.5688,0.00809530777
21325.0499,0.0084551788
21347.314,0.00889678728
21366.7951,0.00931232821
21389.0591,0.00982402715
21411.3232,0.0103792134
21433.5873,0.0109829275
21455.8514,0.0116409561
21480.8985,0.0124545034
21503.1626,0.0132514014
21528.2096,0.0142427093
21539.3417,0.0147192606
21553.2567,0.0153492396
21567.1718,0.0160203868
21578.3038,0.0165893703
21589.6787,0.0172024963
21603.4723,0.0179924329
21617.266,0.0188376894
21631.181,0.019751744
21645.0961,0.0207334084
21661.7941,0.0220101916
21672.9262,0.0229273519
21689.6242,0.0244131345
21700.7563,0.0254843325
21717.4543,0.0272263797
21734.1524,0.029150428
21748.0674,0.0309112152
21764.7655,0.0332388503
21773.1145,0.0345004763
21781.4636,0.0358337387
21789.8126,0.0372440104
21798.1616,0.0387371602
21806.5106,0.0403196071
21814.8597,0.0419983802
21823.2087,0.0437811865
21831.5577,0.0456764868
21839.9068,0.0476935813
21851.0388,0.0505903379
21859.3878,0.0529332458
21870.5199,0.0563087143
21878.8689,0.0590477551
21890.0009,0.0630073475
21898.35,0.066231478
21909.482,0.0709089454
21920.6141,0.0760704365
21931.7461,0.0817798421
21942.8781,0.0881107591
21948.4441,0.0915352977
21956.7932,0.0970287566
21962.3592,0.100947547
21967.9252,0.105087709
21973.4912,0.109464217
21981.8403,0.116507452
21987.4063,0.12154726
21992.9723,0.12688428
21998.5383,0.132538461
22006.8874,0.141660914
22012.4534,0.148202871
22020.8024,0.15876594
22029.1514,0.170304451
22037.5005,0.182905877
22045.8495,0.196658319
22054.1985,0.211646598
22062.5476,0.227946496
22068.1136,0.239571715
22073.6796,0.251817378
22082.5852,0.272706171
22093.7173,0.300988433
22104.8493,0.331402446
22133.7926,0.414844924
22142.6982,0.439010351
22149.3775,0.455571057
22153.8303,0.465591098
22158.2831,0.474622027
22162.7359,0.482521568
22167.1887,0.489158093
22171.6416,0.494415684
22176.0944,0.498198936
22180.5472,0.500437129
22184.5547,0.501094483
22189.4528,0.500137024
22193.9056,0.497603483
22198.3584,0.493534191
22202.8113,0.488004016
22207.2641,0.481111949
22211.7169,0.47297682
22216.1697,0.463732427
22220.6225,0.453522456
22227.3018,0.436722284
22236.2074,0.412320937
22260.6979,0.3412798
22269.6035,0.316271065
22278.5091,0.292463795
22287.4148,0.270101856
22296.3204,0.24930817
22304.6694,0.231269585
22313.0185,0.214618113
22321.3675,0.199300301
22326.9335,0.189793757
22332.4995,0.180823049
22338.0655,0.172362355
22343.6316,0.164385332
22349.1976,0.156865636
22354.7636,0.149777321
22360.3296,0.143095128
22365.8956,0.136794686
22371.4617,0.130852655
22377.0277,0.125246811
22385.3767,0.117422634
22390.9427,0.112567665
22396.5088,0.107980277
22404.8578,0.101563974
22410.4238,0.0975734356
22415.9898,0.0937955485
22424.3389,0.088498289
22435.4709,0.0820615516
22441.0369,0.0790868478
22452.169,0.0735757674
22457.735,0.0710217756
22468.867,0.0662772749
22474.433,0.0640725171
22485.5651,0.0599659094
22491.1311,0.058052505
22502.2631,0.054479439
22507.8292,0.0528103734
22518.9612,0.0496859258
22524.5272,0.0482228566
22535.6593,0.0454776154
22546.7913,0.0429528505
22552.3573,0.0417660903
22563.4894,0.0395311848
22574.6214,0.0374659968
22580.1874,0.036491882
22591.3195,0.0346513204
22602.4515,0.0329431536
22613.5835,0.0313552855
22630.2816,0.0291757808
22641.4136,0.0278439786
22652.5457,0.0265994843
22663.6777,0.0254349763
22674.8098,0.0243438695
22685.9418,0.0233202305
22697.0738,0.0223587028
22708.2059,0.0214544423
22719.3379,0.0206030605
22730.47,0.0198005749
22747.168,0.0186806974
22758.3001,0.0179853143
22769.4321,0.0173275028
22786.1302,0.016405553
22808.3942,0.0152850977
22830.6583,0.0142742987
22852.9224,0.013359443
22864.0544,0.012934282
22886.3185,0.0121420339
22897.4506,0.0117726477
22919.7146,0.0110822182
22930.8467,0.0107593389
22953.1108,0.0101541336
22964.2428,0.00987032791
22986.5069,0.00933697768
22997.6389,0.0090862305
23019.903,0.00861387224
23053.2991,0.0079710125
23075.5632,0.00758131844
23108.9593,0.00704789527
23131.2234,0.0067227498
23164.6195,0.00627539327
23186.8836,0.0060013629
23220.2797,0.00562259816
23242.5438,0.00538955657
23275.9399,0.00506611187
23298.204,0.00486631229
23320.4681,0.00467804704
23342.7322,0.00450044954
23364.9962,0.00433273275
23387.2603,0.00417418065
23431.7885,0.00388201727
23476.3166,0.00361938711
23520.8448,0.00338245695
23565.373,0.00316799408
23609.9011,0.00297325717
23648.8633,0.00281719824
23698.9574,0.00263394929
23732.3536,0.00252153196
23771.3157,0.00239923922
23826.9759,0.00223940101
23854.806,0.00216540965
23910.4662,0.00202803033
23966.1264,0.00190334294
23993.9565,0.00184527794
24049.6167,0.00173686707
24105.2769,0.00163776981
24133.107,0.00159138552
24188.7672,0.00150436759
24244.4274,0.00142433612
24300.0876,0.0013505664
24355.7478,0.00128242509
24383.5779,0.00125028881
24439.2381,0.00118957001
24494.8983,0.00113321322
24550.5585,0.00108081275
24606.2187,0.00103200888
24661.8789,0.000986481794
24717.5391,0.000943946364
24773.1993,0.000904147765
24828.8595,0.000866857678
24884.5197,0.000831871062
24968.01,0.00078331144
25023.6702,0.000753315061
25079.3304,0.000725050852
25162.8207,0.000685621755
25246.311,0.000649411688
25357.6314,0.000605560885
25468.9518,0.000566151531
25524.612,0.000547929135
25635.9324,0.000514133459
25691.5926,0.000498448876
25802.913,0.000469259727
25858.5732,0.00045566767
25969.8936,0.000430293759
26025.5538,0.000418442375
26136.8742,0.00039625513
26192.5344,0.000385863459
26303.8548,0.000366358527
26359.515,0.000357200057
26526.4956,0.000331859523
26637.816,0.000316568848
26804.7966,0.000295732449
26914.8875,0.000283223898
27078.1797,0.000266256167
27194.418,0.000255213566
27361.3986,0.000240686964
27472.719,0.000231792066
27639.6996,0.000219506953
27751.02,0.000211956826
27918.0006,0.000201493779
28029.321,0.000195042914
28196.3016,0.000186077154
28307.622,0.000180534269
28530.2628,0.000170383856
28752.9036,0.000161343964
28864.224,0.000157195657
29086.8648,0.00014956542
29309.5056,0.000142735279
29532.1464,0.000136613383
29699.127,0.000132439306
29866.1076,0.000128590796
30088.7484,0.000123922243
30311.3892,0.000119734589
30534.03,0.000115982368
30756.6708,0.000112626437
30979.3116,0.000109633067
31201.9524,0.000106973192
31535.9136,0.00010355493
31758.5544,0.000101626949
31981.1952,9.99594601e-05
32203.836,9.85381297e-05
32537.7972,9.68420694e-05
32871.7584,9.56418609e-05
33277.5,9.48200276e-05
33677.1564,9.467388e-05
33991.6518,9.50189293e-05
34306.1472,9.57750552e-05
34463.3949,9.6310947e-05
34777.8903,9.77096538e-05
35092.3857,9.95649459e-05
35249.6334,0.000100673565
35564.1288,0.000103277451
35878.6242,0.00010643776
36035.8719,0.000108244843
36350.3673,0.000112357356
36664.8627,0.00011720637
36979.3581,0.000122896844
37136.6058,0.000126097369
37293.8535,0.000129559773
37451.1012,0.000133305659
37608.3489,0.000137359273
37765.5966,0.000141747879
37922.8443,0.000146502195
38080.092,0.000151656909
38315.9636,0.000160227055
38551.8351,0.000169943507
38709.0828,0.000177150016
38866.3305,0.00018501581
39023.5782,0.000193617199
39180.8259,0.000203042249
39338.0736,0.000213393009
39495.3213,0.00022478824
39652.569,0.000237366795
39809.8167,0.000251291819
39967.0644,0.00026675602
40124.3121,0.000283988316
40281.5598,0.000303262309
40399.4956,0.000319253207
40478.1194,0.000330733762
40556.7433,0.000342933433
40635.3671,0.000355912796
40713.991,0.000369738977
40792.6148,0.000384486517
40871.2387,0.000400238381
40949.8625,0.000417087122
41028.4864,0.000435136241
41107.1102,0.000454501781
41185.7341,0.000475314197
41264.3579,0.000497720548
41342.9818,0.000521887109
41421.6056,0.000548002455
41500.2295,0.000576281152
41578.8533,0.000606968171
41618.1653,0.000623300955
41696.7891,0.000658139644
41775.4129,0.000696169817
41854.0368,0.000737792764
41932.6607,0.000783474913
41971.9726,0.00080800492
42050.5964,0.00086082591
42129.2203,0.000919251136
42184.257,0.000963916891
42231.4313,0.00100495054
42278.6056,0.00104876309
42325.7799,0.00109561095
42357.2294,0.0011286693
42420.1285,0.00119959369
42451.5781,0.00123766943
42514.4771,0.00131963883
42572.8154,0.00140338464
42608.8258,0.00145922761
42640.2753,0.00151083901
42687.4496,0.00159367242
42718.8991,0.00165282477
42750.3487,0.00171540419
42797.523,0.00181629558
42828.9725,0.00188868086
42860.4221,0.00196556099
42907.5964,0.00209014899
42939.0459,0.0021800146
42970.4955,0.00227589119
43001.945,0.0023783252
43033.3945,0.0024879263
43064.8441,0.0026053764
43096.2936,0.00273144009
43127.7432,0.00286697686
43159.1927,0.0030129556
43190.6423,0.00317047154
43229.9542,0.00338549829
43265.3349,0.00359841566
43302.6812,0.00384583119
43341.9932,0.00413500213
43361.6491,0.00429201009
43380.3223,0.00444961656
43398.9955,0.00461607807
43418.16,0.00479683123
43437.3246,0.00498841256
43456.9805,0.00519707084
43475.6537,0.0054076454
43495.3097,0.0056434032
43514.9656,0.00589487369
43536.5872,0.00619132851
43558.2087,0.00651061038
43579.8303,0.00685509278
43601.4519,0.00722746106
43623.0734,0.00763076209
43642.7294,0.00802715035
43666.3165,0.00854452167
43689.9037,0.0091129479
43713.4909,0.00973923603
43737.078,0.0104313388
43760.6652,0.0111985874
43784.2523,0.0120519788
43796.0459,0.0125149564
43811.7707,0.0131739799
43823.5642,0.0137021916
43839.289,0.0144560541
43851.0826,0.015061912
43866.8074,0.0159290228
43878.6009,0.0166279021
43894.3257,0.0176311438
43910.0505,0.0187245992
43925.7752,0.0199188951
43941.5,0.0212261732
43957.2248,0.0226603345
43972.9496,0.024237324
43988.6743,0.0259754622
44004.3991,0.0278958273
44012.2615,0.0289317928
44024.0551,0.030589865
44031.9174,0.03177003
44043.711,0.0336625048
44051.5734,0.0350120395
44063.367,0.0371801376
44071.2294,0.0387290054
44083.0229,0.0412216901
44090.8853,0.0430053754
44102.6789,0.0458803868
44114.4725,0.0490164439
44126.2661,0.0524398184
44138.0596,0.0561787352
44149.8532,0.0602630845
44161.6468,0.0647238846
