energy [eV],cross section [b]
1e-05,650.444004
1.09100454e-05,622.725458
1.18200907e-05,598.273103
1.28037523e-05,574.832393
1.39346464e-05,551.013032
1.50655404e-05,529.928735
1.59109511e-05,515.657979
1.68478431e-05,501.115275
1.82531811e-05,481.438137
1.9772201e-05,462.575084
2.09364568e-05,449.529433
2.21007126e-05,437.52872
2.32649684e-05,426.440507
2.45704943e-05,414.956637
2.60172903e-05,403.253928
2.81874842e-05,387.419469
3.05332315e-05,372.240115
3.32300854e-05,356.815559
3.59269393e-05,343.162131
3.9060106e-05,329.111231
4.12943214e-05,320.084177
4.46456445e-05,307.836255
4.85391642e-05,295.231777
5.13155763e-05,287.133983
5.54801943e-05,276.14688
5.85934945e-05,268.710337
6.20436827e-05,261.132081
6.5493871e-05,254.160833
6.89440593e-05,247.719657
7.28128912e-05,241.048643
7.92441048e-05,231.060248
8.56753183e-05,222.218772
9.31470111e-05,213.119906
0.000101138944,204.526286
0.000109130876,196.894861
0.000115751813,191.180761
0.000125683217,183.471779
0.000135614622,176.62594
0.000143842319,171.500055
0.000152070016,166.796012
0.000164411562,160.413557
0.000173637603,156.093636
0.000183861988,151.691392
0.000194086372,147.64176
0.000204310757,143.900049
0.000222128575,138.007928
0.0002348342,134.222511
0.000247539826,130.732411
0.000268139957,125.610137
0.000291823473,120.405115
0.00031550699,115.797757
0.000343022164,111.056268
0.000362642833,108.010077
0.000392073836,103.876997
0.000414075265,101.079549
0.000438457453,98.2287891
0.000475030736,94.371538
0.000499412924,92.0389338
0.000529712152,89.3677815
0.000560011379,86.9164533
0.000590310607,84.656363
0.000620609835,82.5638717
0.000658262042,80.1676811
0.000714740352,76.9349371
0.000771218662,74.0641452
0.000841403059,70.9077208
0.000911587455,68.1232233
0.000987449273,65.4539188
0.00104559371,63.6078281
0.00113281037,61.1099511
0.00122708224,58.715408
0.0012993371,57.0593412
0.00137159196,55.5359188
0.00147997425,53.4635113
0.00156976383,51.9117717
0.00165955341,50.48773
0.00183913257,47.9591909
0.00200650198,45.9151158
0.00211808158,44.6891624
0.00222966119,43.5564219
0.00242410859,41.7726709
0.002632095,40.0879561
0.00284008141,38.5918604
0.00301238827,37.4716369
0.00327084856,35.9603131
0.00352930885,34.618193
0.00374343093,33.6132592
0.00395755301,32.6910203
0.00427873612,31.4397119
0.00451883964,30.5927632
0.0047849246,29.7296663
0.00505100955,28.935694
0.00531709451,28.2020852
0.00578079512,27.0468461
0.00611145324,26.3046467
0.00644211137,25.620341
0.00697822041,24.6159975
0.00759457316,23.5954069
0.0082109259,22.691984
0.0089269958,21.7622366
0.00969292427,20.8840913
0.0104588527,20.1042451
0.0110933881,19.520312
0.0117279235,18.9844213
0.0126797265,18.2573011
0.013391256,17.7651388
0.0141797796,17.2635828
0.0149683032,16.8021865
0.0157568268,16.3758601
0.0171309702,15.7044902
0.0181108518,15.2731459
0.0190907333,14.8754376
0.0206794539,14.2917086
0.0225059709,13.6985103
0.0249413269,13.0112939
0.0267235143,12.5690594
0.0281470286,12.2464092
0.0302823001,11.8057569
0.0328744571,11.3295934
0.034754857,11.0180181
0.0375754568,10.5952333
0.0396840232,10.3090465
0.0420207562,10.0173807
0.0443574892,9.7490522
0.0466942221,9.5011039
0.0507663971,9.110608
0.0536702055,8.8596979
0.056574014,8.62833623
0.061282073,8.28872625
0.0666948246,7.94356216
0.0721075763,7.63796694
0.0783960345,7.32340376
0.085122346,7.02623257
0.0918486575,6.7622654
0.0974210872,6.56457023
0.102993517,6.38310545
0.111352161,6.13682768
0.117600746,5.97008896
0.124525486,5.80012964
0.131450226,5.64374206
0.138374966,5.49920718
0.150442563,5.27152397
0.159047791,5.12518967
0.167653018,4.9902272
0.181605012,4.7920638
0.197645312,4.59058459
0.213685612,4.41213164
0.232321005,4.22836359
0.252253945,4.05467401
0.272186885,3.90031649
0.288700379,3.78466104
0.305213873,3.67845847
0.329984115,3.53425325
0.348501346,3.43657073
0.369022314,3.3369556
0.389543283,3.24525086
0.410064251,3.1604559
0.445825707,3.02679367
0.471326679,2.94082686
0.496827651,2.86149466
0.538173381,2.74492535
0.585707655,2.62628856
0.633241929,2.52110068
0.688466575,2.41265996
0.747536408,2.31004231
0.806606241,2.21873396
0.855542792,2.15024351
0.904479344,2.08728909
0.977884171,2.001705
1.03275865,1.94365922
1.09357107,1.88440018
1.15438348,1.82978517
1.21519589,1.77922934
1.32117239,1.6994212
1.39674269,1.64801041
1.47231298,1.60050716
1.59483807,1.53059517
1.73570247,1.45929708
1.87656687,1.39594878
2.04022114,1.33050157
2.1569206,1.28830727
2.3319698,1.23085898
2.46282951,1.19183699
2.60784945,1.15194905
2.7528694,1.11514126
2.89788935,1.08102959
3.06050593,1.04559201
3.33082574,0.99231446
3.51103895,0.960136298
3.69125216,0.930252445
4.02717285,0.879794743
4.36309354,0.835059712
4.72618783,0.791973285
5.14362934,0.747984852
5.56107085,0.708874215
5.87313325,0.682311757
6.21896372,0.65517022
6.56479418,0.63014063
6.91062464,0.606964712
7.29365491,0.583199981
7.71388497,0.559150738
8.14364114,0.536476838
8.80256457,0.504957451
9.33661344,0.481886593
9.60363788,0.471080128
10.4047112,0.441212756
11.2705857,0.412633905
11.9342368,0.392921691
12.597888,0.374843471
13.2615392,0.358200795
14.0057174,0.34104167
14.8304227,0.323655389
15.6551279,0.307769799
16.4798332,0.293201945
17.144,0.282322936
18.1058901,0.267768001
18.5868352,0.260974262
19.5487253,0.248257436
20.0296704,0.24230041
20.9915605,0.231114315
21.6283363,0.22420132
22.9018878,0.211431595
23.5386635,0.205528498
24.812215,0.194585602
26.2248832,0.183656149
27.747,0.17312994
29.13,0.164558756
30.589065,0.156428668
31.663195,0.150987423
33.078114,0.144464541
34.662,0.137964894
35.584,0.134545787
36.57976,0.131139153
37.92588,0.126988126
39.272,0.123342662
40.47982,0.120493475
41.71991,0.117981731
42.96,0.11589466
44.73024,0.113680136
46.2792,0.112533775
47.05368,0.112262764
47.77284,0.112206845
48.953,0.112560235
49.81968,0.113209444
50.6583883,0.114191068
51.258,0.115129205
52.28142,0.117244492
53.102,0.119474323
53.563,0.120964518
54.47578,0.124491757
55.17189,0.12777131
55.868,0.13164846
56.43042,0.135284103
57.07121,0.140060216
57.712,0.145619873
58.36662,0.152252845
58.94748,0.159091687
59.52834,0.166992578
60.09998,0.175997454
60.6624,0.1862775
60.97588,0.192721275
61.34468,0.201053877
61.5844,0.206954917
61.9532,0.216871827
62.2069786,0.224352236
62.51562,0.234261104
62.8752,0.247073026
63.244,0.261844904
63.5206,0.274171655
63.7972,0.287720799
64.0738,0.302654766
64.2582,0.313472836
64.4426,0.325054924
64.7192,0.344020972
64.9036,0.357848701
65.088,0.372734636
65.3646,0.397290572
65.549,0.415332411
65.7334,0.434883718
65.9178,0.456116055
66.1022,0.479226142
66.2866,0.504440417
66.471,0.532020601
66.5632,0.54679099
66.7476,0.578505088
66.8859,0.604382582
67.09335,0.647008921
67.23165,0.678283418
67.4391,0.730118672
67.5774,0.768396871
67.64655,0.788781649
67.78485,0.832290201
67.9462,0.888174287
68.0384,0.922881216
68.1306,0.959821432
68.2228,0.999190653
68.315,1.04120654
68.4072,1.08611173
68.4994,1.13417734
68.5916,1.18570709
68.6838,1.24104211
68.776,1.30056665
68.9143,1.39867379
69.0065,1.4706999
69.0987,1.54870855
69.1909,1.63338159
69.237,1.67845722
69.3292,1.77462906
69.3753,1.8259667
69.4675,1.9358194
69.5136,1.99463592
69.6058,2.12089519
69.6519,2.18871828
69.7441,2.33482456
69.8363,2.49653126
69.9285,2.67614327
69.99765,2.82423575
70.04375,2.93007307
70.08985,3.04211722
70.159,3.22291865
70.2051,3.3527595
70.2512,3.490776
70.331875,3.75413122
70.377975,3.91848615
70.424075,4.09407697
70.470175,4.28195257
70.516275,4.48328714
70.562375,4.69939869
70.6113563,4.94687087
70.6502531,5.15779978
70.68915,5.38270805
70.7287672,5.62745941
70.7683844,5.88951611
70.8101625,6.18646086
70.8505,6.4952644
70.8908375,6.82805514
70.9340562,7.21414102
70.977275,7.63428255
71.0176125,8.06077326
71.0637125,8.59389129
71.1098125,9.18220467
71.1559125,9.83360735
71.1789625,10.1858255
71.207775,10.653565
71.230825,11.0515223
71.253875,11.4723601
71.276925,11.9178668
71.3057375,12.5124558
71.3287875,13.0209654
71.3518375,13.5613053
71.3748875,14.1361884
71.3979375,14.7486232
71.4209875,15.4019529
71.4440375,16.0999008
71.4670875,16.8466238
71.4959,17.8557576
71.51895,18.730107
71.5477625,19.9167816
71.576575,21.2203674
71.6053875,22.6567352
71.6342,24.2445404
71.6630125,26.0058309
71.691825,27.9668137
71.70335,28.8139423
71.7206375,30.1588322
71.7321625,31.108533
71.74945,32.6196217
71.760975,33.689128
71.7782625,35.3949375
71.79555,37.2338561
71.8128375,39.2200838
71.82782,41.0730579
71.843955,43.2194755
71.857785,45.1961616
71.87853,48.4256182
71.89236,50.7748366
71.9108,54.1826706
71.92463,56.9687969
71.94307,61.0305984
71.96151,65.5424704
71.97073,67.9881981
71.97995,70.5732538
71.98917,73.3083934
71.99839,76.2054276
72.00761,79.2773482
72.01683,82.5384721
72.02605,86.004606
72.03527,89.6932362
72.04449,93.6237456
72.05832,100.020792
72.06754,104.655627
72.07676,109.619127
72.08598,114.942961
72.09981,123.683327
72.10903,130.073528
72.11364,133.455091
72.12286,140.624115
72.13208,148.383504
72.13669,152.504918
72.14591,161.276856
72.15513,170.822891
72.15974,175.914753
72.16896,186.800823
72.17357,192.623858
72.18279,205.110513
72.1874,211.810227
72.194315,222.486739
72.20123,233.983356
72.208145,246.385307
72.21506,259.789046
72.221975,274.304047
72.22889,290.05494
72.235805,307.184059
72.24272,325.854493
72.24733,339.249203
72.25194,353.474169
72.258855,376.520873
72.263465,393.138539
72.268075,410.86065
72.27499,439.731998
72.2796,460.668198
72.28421,483.102619
72.28882,507.178057
72.29343,533.054232
72.29804,560.910163
72.30265,590.946934
72.30726,623.390902
72.31187,658.497433
72.31648,696.555266
72.32109,737.891602
72.3257,782.878068
72.33031,831.937682
72.33492,885.553018
72.337225,914.238488
72.341835,975.746403
72.346445,1043.34372
72.34875,1079.66449
72.35336,1157.88932
72.355665,1200.03294
72.3591225,1267.40864
72.36258,1340.21702
72.3660375,1419.0043
72.369495,1504.37772
72.3729525,1597.01175
72.37641,1697.65454
72.3798675,1807.13409
72.383325,1926.36395
72.3867825,2056.34752
72.39024,2198.18028
72.392545,2299.90045
72.39485,2407.78479
72.3983075,2582.01982
72.4006125,2707.03461
72.4029175,2839.61321
72.406375,3053.55621
72.40868,3206.81213
72.410985,3369.0004
72.41329,3540.44473
72.4167475,3815.51789
72.419744,4071.62157
72.423432,4409.27073
72.42712,4770.47387
72.430808,5152.34862
72.443716,6553.49729
72.446482,6835.00341
72.449248,7095.14153
72.451092,7252.85496
72.452936,7395.29745
72.45478,7520.23848
72.456624,7625.60829
72.458468,7709.57713
72.460312,7770.63059
72.462156,7807.63558
72.464,7819.89183
72.465844,7807.16454
72.467688,7769.69558
72.469532,7708.19201
72.471376,7623.7931
72.47322,7518.01865
72.475064,7392.70279
72.476908,7249.91859
72.478752,7091.89877
72.481518,6831.36947
72.485206,6452.17951
72.495348,5345.0721
72.499036,4954.60346
72.502724,4582.64098
72.506412,4233.06979
72.5101,3907.871
72.5135575,3625.66163
72.517015,3365.08065
72.5204725,3125.31435
72.5227775,2976.4856
72.5250825,2836.02909
72.5273875,2703.54402
72.5296925,2578.62073
72.5319975,2460.84915
72.5343025,2349.82494
72.5366075,2245.15417
72.5389125,2146.45658
72.5412175,2053.36775
72.5435225,1965.54055
72.54698,1842.9503
72.549285,1766.87716
72.55159,1694.99332
72.5550475,1594.44494
72.5573525,1531.90672
72.5596575,1472.69862
72.563115,1389.67431
72.567725,1288.784
72.57003,1242.15539
72.57464,1155.76417
72.576945,1115.72577
72.581555,1041.34318
72.58386,1006.77587
72.58847,942.386903
72.590775,912.384299
72.595385,856.35478
72.599995,805.143207
72.6023,781.180457
72.60691,736.249718
72.61152,694.965673
72.613825,675.57331
72.618435,639.07717
72.623045,605.380731
72.62535,589.496372
72.62996,559.500786
72.63457,531.683798
72.63918,505.844497
72.646095,470.407786
72.650705,448.771703
72.655315,428.566555
72.659925,409.671278
72.664535,391.977095
72.669145,375.386079
72.673755,359.809903
72.678365,345.168761
72.682975,331.39041
72.687585,318.409345
72.6945,300.303995
72.69911,289.067441
72.70372,278.442216
72.71294,258.857347
72.72216,241.247141
72.72677,233.101471
72.73599,217.989153
72.7406,210.973084
72.74982,197.911536
72.75443,191.827116
72.76365,180.464186
72.76826,175.154676
72.775175,167.615959
72.78209,160.550203
72.79131,151.798952
72.79592,147.687444
72.80514,139.947051
72.80975,136.301662
72.82358,126.176297
72.8328,120.03683
72.84663,111.630808
72.85585,106.505617
72.86968,99.4522071
72.8789,95.1304646
72.89273,89.1553825
72.90195,85.4781284
72.91578,80.3730149
72.925,77.2186149
72.93422,74.2456783
72.94344,71.4405937
72.95266,68.7909985
72.96188,66.2856444
72.98032,61.6675433
72.99876,57.5144451
73.0172,53.7661055
73.03564,50.3717081
73.05408,47.2881521
73.070215,44.8160049
73.09096,41.9118391
73.10479,40.1294694
73.120925,38.1898134
73.143975,35.6534373
73.1555,34.4788052
73.17855,32.2969401
73.2016,30.3155038
73.213125,29.392374
73.236175,27.6680847
73.259225,26.0910025
73.27075,25.3524904
73.2938,23.9664117
73.31685,22.6908544
73.3399,21.5143885
73.374475,19.9139703
73.397525,18.9441556
73.420575,18.0434531
73.443625,17.2054563
73.466675,16.4244835
73.489725,15.6954816
73.512775,15.0139448
73.535825,14.3758448
73.558875,13.7775712
73.581925,13.215881
73.604975,12.6878544
73.628025,12.190857
73.651075,11.7225068
73.674125,11.2806462
73.697175,10.8633165
73.720225,10.4687368
73.7548,9.91601393
73.8009,9.24468395
73.847,8.63935486
73.87005,8.35877241
73.91615,7.837165
73.9392,7.59451059
73.9853,7.14188325
74.00835,6.93062352
74.05445,6.53534008
74.0775,6.35028931
74.1236,6.0030662
74.14665,5.84006612
74.19275,5.53342409
74.2158,5.38910906
74.2619,5.1169683
74.28495,4.98859076
74.33105,4.74596819
74.4002,4.4140476
74.4463,4.21182469
74.51545,3.9337017
74.56155,3.76339197
74.6307,3.52805052
74.6768,3.38328284
74.74595,3.18238708
74.79205,3.05830341
74.83815,2.94139055
74.88425,2.831107
74.9534,2.6770492
74.9995,2.5812857
75.0917,2.4046882
75.1839,2.24578063
75.2761,2.10227929
75.3683,1.97225724
75.4605,1.85407944
75.5527,1.74635132
75.6449,1.64787755
75.7371,1.55762884
75.7832,1.51530589
75.8754,1.43576306
75.9676,1.3624338
76.1059,1.26273373
76.1981,1.20234906
76.2903,1.14628919
76.4286,1.06943968
76.5669,1.00025204
76.7052,0.937741508
76.8435,0.881076471
76.9818,0.829550763
77.1313228,0.778931287
77.2459684,0.743302215
77.3506,0.71295632
77.4889,0.675726287
77.6272,0.641456573
77.7655,0.609841575
77.97295,0.566821273
78.1804,0.528412014
78.3648,0.497624676
78.457,0.483288539
78.6414,0.45652291
78.7336,0.444019165
78.918,0.420603883
79.1024,0.399116898
79.2868,0.379351949
79.5634,0.352547165
79.7478,0.336351143
79.9322,0.32134148
80.1166,0.307404836
80.301,0.294441077
80.4854,0.282361471
80.6698,0.271087168
80.8542,0.260547909
81.0386,0.250680925
81.223,0.241430003
81.4074,0.232744678
81.5918,0.224579547
81.8684,0.213218747
82.2372,0.199541447
82.58756,0.187903235
82.9748,0.176363743
83.3436,0.16649325
83.58332,0.160593935
83.95212,0.152223556
84.2656,0.145711794
84.63901,0.138595707
85.01703,0.132021899
85.39966,0.125939024
85.59328,0.123058847
86.17414,0.115127672
86.755,0.108128237
87.216,0.103140691
87.85679,0.096922934
88.49758,0.0914186451
89.06,0.0870900867
89.75611,0.0822899652
90.45222,0.0780191229
91.1345,0.074272496
91.5955,0.0719563715
92.23629,0.0689916059
92.902435,0.0661882952
93.414145,0.0642061581
94.02958,0.061998156
95.10832,0.0585334814
96.2495792,0.0553448445
96.79558,0.0539676429
97.51474,0.0522823098
98.6488,0.0498876041
99.81052,0.047722415
101.22118,0.0454230447
102.588045,0.0434855723
103.828135,0.0419375692
105.05209,0.0405787001
106.32906,0.039317598
107.67518,0.03814071
109.344,0.0368725728
110.266,0.0362531982
111.95787,0.0352519541
113.80187,0.0343420322
114.876,0.0338920453
115.798,0.0335500855
117.642,0.0329833632
119.375647,0.0325875319
120.819323,0.0323565591
122.263,0.0322146654
124.1499,0.032165141
126.0368,0.0322749276
127.3394,0.0324486054
128.642,0.0327073156
130.312,0.0331727711
131.6981,0.0336835727
133.0007,0.0342771385
134.115425,0.0348811873
135.5057,0.0357724306
136.992,0.0369158966
138.2445,0.0380540398
139.4803,0.0393562367
140.74115,0.0408951713
142.002,0.042679716
143.0207,0.0443286242
144.18135,0.0464686024
144.761675,0.0476565756
145.55075,0.0494136945
146.177,0.0509362468
146.719145,0.0523550413
147.261291,0.0538757495
148.074508,0.0563678095
148.664091,0.0583502545
149.32495,0.0607690223
149.6673,0.0621114554
150.352,0.0649983088
151.02,0.0681021347
151.4876,0.0704636009
152.1389,0.0740429046
152.69,0.0773657513
153.3747,0.0819206913
154.0427,0.0868847272
154.694,0.0922961636
155.362,0.0985265609
155.696,0.101935118
156.03,0.10556109
156.364,0.109423055
156.698,0.113541632
157.032,0.117939746
157.366,0.122642956
157.7,0.127679816
158.034,0.133082316
158.368,0.138886384
158.702,0.145132486
159.036,0.151866328
159.537,0.162996798
159.871,0.17119237
160.205,0.180090583
160.539,0.189773767
160.706,0.194938792
161.04,0.205981643
161.207,0.211888911
161.541,0.224557595
161.83325,0.236674549
162.209,0.253863175
162.4595,0.26645821
162.58475,0.273132832
162.83525,0.287305115
163.08575,0.302677889
163.211,0.310857265
163.4615,0.328298624
163.58675,0.337603583
163.7955,0.35405977
163.9625,0.368148793
164.1295,0.383134787
164.2965,0.399095554
164.4635,0.41611753
164.6305,0.434296954
164.7975,0.453741239
164.9645,0.474570562
165.1315,0.496919733
165.2985,0.520940385
165.549,0.560485585
165.716,0.589483359
165.883,0.620857695
166.05,0.654875771
166.1335,0.672970095
166.3005,0.711541152
166.42575,0.742741162
166.551,0.776087016
166.6345,0.79960829
166.8015,0.850046701
166.885,0.877111188
167.052,0.935345699
167.219,0.999692191
167.386,1.07103763
167.51125,1.12976647
167.59475,1.17168632
167.67825,1.21601846
167.8035,1.2874579
167.887,1.33868881
167.9705,1.39308057
168.054,1.45089885
168.1375,1.51243783
168.221,1.57802397
168.3045,1.64802032
168.388,1.72283161
168.4715,1.80291009
168.555,1.88876238
168.6385,1.98095755
168.76375,2.13256758
168.84725,2.24360927
168.93075,2.36363018
169.01425,2.4936257
169.076875,2.59834627
169.160375,2.74863307
169.243875,2.91244121
169.316938,3.06817374
169.400438,3.2620514
169.483937,3.47501988
169.572656,3.72512365
169.661375,4.00338659
169.705734,4.15441791
169.749441,4.31178466
169.794453,4.48342555
169.840117,4.6682902
169.885781,4.86487829
169.93275,5.0803812
169.9745,5.28423916
170.01625,5.50066476
170.058,5.7307126
170.104969,6.00725783
170.146719,6.27028925
170.193688,6.58745536
170.240656,6.92938241
170.287625,7.2987158
170.329375,7.65244256
170.381563,8.13205811
170.43375,8.65832555
170.485938,9.23749415
170.538125,9.87689479
170.590313,10.5851724
170.6425,11.3725789
170.663375,11.7123605
170.694688,12.2513446
170.715563,12.6316254
170.746875,13.2361546
170.76775,13.6636279
170.799063,14.3447633
170.830375,15.0781579
170.861687,15.8692902
170.893,16.7243751
170.91805,17.4592091
170.95145,18.5167779
170.9765,19.3742972
171.00155,20.2927686
171.03495,21.6225211
171.06835,23.0872842
171.10175,24.7059292
171.13515,26.5007335
171.16855,28.4981451
171.18525,29.5824672
171.20195,30.7297515
171.21865,31.9449531
171.23535,33.2335225
171.25205,34.6014664
171.26875,36.0554163
171.28545,37.6027086
171.3105,40.1166963
171.3272,41.9349273
171.3439,43.879179
171.3606,45.9613161
171.38565,49.3725625
171.40235,51.861179
171.4274,55.960444
171.4441,58.9678833
171.45245,60.5628348
171.46915,63.9519808
171.48585,67.6319156
171.498375,70.6029569
171.5109,73.7727458
171.523425,77.1592639
171.53595,80.7825549
171.548475,84.6650116
171.561,88.8317112
171.573525,93.3108063
171.58605,98.1339836
171.598575,103.337003
171.6111,108.960334
171.623625,115.049908
171.631975,119.39418
171.640325,123.986038
171.65285,131.379891
171.6612,136.677437
171.66955,142.297118
171.682075,151.388708
171.690425,157.934346
171.698775,164.906283
171.7113,176.245733
171.71965,184.45467
171.728,193.238548
171.73635,202.651041
171.7447,212.752066
171.75305,223.608638
171.7614,235.295871
171.76975,247.898138
171.7781,261.510415
171.78645,276.23985
171.790625,284.060759
171.798975,300.698041
171.807325,318.786387
171.815675,338.492116
171.824025,360.004753
171.8282,371.505135
171.83655,396.14354
