energy [eV],cross section [b]
1e-05,21.7781569
1.090516e-05,20.8547996
1.176413e-05,20.0790756
1.257105e-05,19.424295
1.3131516e-05,19.0080517
1.474673e-05,17.9340987
1.62711118e-05,17.0766312
1.684983e-05,16.7775938
1.835751e-05,16.0738876
2e-05,15.3997385
2.181024e-05,14.7466409
2.35281e-05,14.1980662
2.514186e-05,13.7349802
2.664444e-05,13.3421105
2.949314e-05,12.6814429
3.182781e-05,12.2072243
3.369931e-05,11.8635191
3.671479e-05,11.3660533
4e-05,10.8892651
4.37636189e-05,10.4109545
4.705604e-05,10.0397045
5.02062551e-05,9.71970151
5.328858e-05,9.43428401
5.898596e-05,8.96700652
6.365529e-05,8.63189542
6.739828e-05,8.38877166
7.342935e-05,8.0369469
8e-05,7.69984638
8.78643743e-05,7.34799881
9.41123e-05,7.09912353
0.000100612975,6.86586893
0.0001065787,6.67102074
0.0001179737,6.34059878
0.000127827721,6.09159895
0.0001347988,5.93167391
0.0001468603,5.6828818
0.00016,5.44459756
0.0001744821,5.21377884
0.0001882251,5.01980794
0.0002011354,4.85595744
0.0002131561,4.71704652
0.0002359458,4.48350507
0.0002546232,4.31596353
0.0002695952,4.19439716
0.0002937188,4.01840193
0.00032,3.8499051
0.000354911838,3.65656051
0.0003764486,3.54953721
0.0004022684,3.43374536
0.0004263093,3.33549977
0.0004718883,3.1703192
0.000509243,3.0518607
0.000539187,2.96589852
0.0005874353,2.84143821
0.00064,2.72225177
0.0006979258,2.60686968
0.0007528957,2.50989383
0.0008045345,2.42802927
0.0008526155,2.35856083
0.0009437735,2.24178077
0.001018483,2.15798272
0.001078371,2.09720387
0.001174868,2.00923433
0.00128450165,1.92168921
0.001395851,1.84334079
0.00150579,1.7747517
0.001609067,1.71687097
0.001705228,1.66775075
0.00176703808,1.63932553
0.001887544,1.58517123
0.002036962,1.52591767
0.002156738,1.48295537
0.002349734,1.42074395
0.00256,1.36113348
0.00263427705,1.34238637
0.002791701,1.30341325
0.003011578,1.25494492
0.003218131,1.21400697
0.003410453,1.17928745
0.003775084,1.12087799
0.00407392,1.07898929
0.004313472,1.04859713
0.004699466,1.00461332
0.00512,0.962473133
0.0055834,0.921660702
0.006023154,0.887378021
0.006436259,0.858430076
0.006820903,0.833875267
0.007550165,0.792576777
0.008147838,0.762947118
0.00862694,0.741460092
0.00939893,0.710365238
0.00981894473,0.695337761
0.01024,0.68057024
0.0109586814,0.658090895
0.01204631,0.627473661
0.01287252,0.606990016
0.0136418,0.589632803
0.01510033,0.560430217
0.01629567,0.539488058
0.01725388,0.524287314
0.01879786,0.502300957
0.02048,0.48123066
0.02159124,0.468693927
0.02337217,0.450473553
0.0253,0.432962024
0.0278475791,0.412749501
0.02976285,0.399189859
0.03180416,0.386164787
0.03370484,0.375113923
0.036568093,0.360289002
0.0396618055,0.345883307
0.0426292,0.333546111
0.04644392,0.319554461
0.0506,0.306149138
0.0529778753,0.299347342
0.05517969,0.293172486
0.05952569,0.282263333
0.06360832,0.273055512
0.06740968,0.265242857
0.07461684,0.252109472
0.08052352,0.242685407
0.0852584,0.235851067
0.09288784,0.225955163
0.1012,0.216475426
0.1103594,0.207296721
0.1190514,0.199583549
0.12861546,0.192043999
0.1348194,0.187550633
0.1492337,0.178261476
0.161047,0.171598519
0.1705168,0.166764497
0.1857757,0.159767103
0.197468535,0.155025075
0.2024,0.153063405
0.2207188,0.146571753
0.244681011,0.139247259
0.2544333,0.136515605
0.2696387,0.132609446
0.2984673,0.126041304
0.3220941,0.121327465
0.3410336,0.117909803
0.375668684,0.112363692
0.4048,0.108221965
0.4414375,0.103630241
0.4762055,0.0997749876
0.5088666,0.0965181516
0.5392774,0.0937562133
0.593516828,0.0893792695
0.6441882,0.0857769485
0.6820672,0.0833604485
0.7431027,0.0798617025
0.8096,0.0765089755
0.8828751,0.0732619282
0.952411,0.0705350548
1.03973894,0.067517904
1.078555,0.0662781372
1.12912007,0.064818291
1.193869,0.0629911091
1.288376,0.0606337955
1.364134,0.0589243574
1.486205,0.0564493494
1.6192,0.0540779997
1.68469597,0.0530403016
1.76575,0.0517816288
1.904822,0.0498519879
2.035466,0.0482221567
2.15711,0.0468398745
2.39036969,0.0444911449
2.576753,0.0428473983
2.728269,0.0416373736
2.972411,0.0398859163
3.2384,0.0382081768
3.5315,0.0365828721
3.809644,0.0352171315
4.070933,0.0340635731
4.314219,0.0330849003
4.775477,0.0314392984
5.153505,0.030259103
5.456538,0.0294022898
5.944822,0.0281620361
6.4768,0.0269735674
7.063,0.0258226719
7.33582386,0.0253439154
7.619288,0.0248553578
8.141865,0.024038246
8.628439,0.0233447956
9.550955,0.0221789475
10.4480184,0.0211990838
10.91308,0.0207347568
11.936201,0.0198176758
12.9536,0.0190125049
14.126,0.0181964553
15.6241813,0.0172939144
16.28373,0.0169302501
17.2925225,0.0164216156
19.10191,0.0156104116
20.61402,0.0150160603
21.82615,0.0145847843
23.77929,0.0139599598
25.9072,0.0133607001
28.252,0.0127802916
30.47715,0.0122920296
32.56746,0.0118796121
34.51376,0.0115294677
38.20382,0.0109399309
41.22804,0.010516608
43.6523,0.0102091824
47.55857,0.0097637708
51.8144,0.00933646227
56.504,0.00892213208
58.0567655,0.00879920877
60.9543,0.00857367516
65.13492,0.0082791993
69.02751,0.00802903834
77.5487662,0.0075497596
82.45608,0.00730508029
86.8192794,0.00710698939
93.7721643,0.00682073112
104.705033,0.0064265715
113.008,0.00616491984
121.9086,0.00591573038
130.2698,0.0057050145
138.055,0.00552620545
152.8153,0.00522515994
164.9122,0.00500897004
173.985214,0.00486206353
190.2343,0.00462510081
207.2576,0.00440748701
226.016,0.00419676257
243.8172,0.00401986678
261.340453,0.00386404054
276.11,0.00374420068
305.6306,0.00353192948
329.8243,0.00338007182
349.2184,0.00327016441
380.4686,0.00311153124
414.5152,0.00296022621
430.917171,0.00289562626
452.032,0.0028144359
482.430864,0.00271004482
521.0794,0.00259019509
552.2201,0.00250389446
611.2611,0.00235973541
659.6487,0.00225718391
698.4368,0.00218338567
760.9372,0.00207739012
819.786741,0.00199032187
904.15584,0.00188066857
987.880268,0.00178814115
1042.159,0.00173414931
1104.44,0.00167808809
1222.522,0.00158491162
1319.297,0.00151907124
1396.874,0.00147180039
1521.874,0.00140426625
1658.061,0.00134051016
1808.128,0.00127973411
1950.538,0.00122947288
2084.317,0.00118760626
2208.88,0.00115254106
2445.044,0.0010946016
2561.06928,0.00107008198
2718.87056,0.00103887215
2882.37714,0.00101028391
3043.749,0.000984003792
3271.17504,0.000952200371
3616.256,0.000910884952
3901.075,0.000883044365
4168.635,0.00086127629
4417.761,0.000844571522
4691.38656,0.00083084915
4890.089,0.000822405212
5125.34008,0.00081675635
5322.59168,0.000814485742
5559.2936,0.000816358121
5756.5452,0.000822739911
5914.34648,0.000831250288
6087.497,0.00084502043
6229.94904,0.000861730003
6308.84968,0.000873212898
6387.75032,0.00088659642
6466.65096,0.00090220554
6525.82644,0.000915609228
6585.00192,0.000930688543
6644.1774,0.000947751479
6703.35288,0.000967287916
6762.52836,0.000989354713
6821.70384,0.00101435462
6880.87932,0.00104277426
6940.0548,0.00107520608
6979.50512,0.00109940873
7026.19399,0.00113112301
7068.26834,0.00116294654
7117.58124,0.00120476398
7157.03156,0.00124226047
7196.48188,0.00128390164
7235.9322,0.00133031266
7275.38252,0.00138237799
7314.83284,0.00144078935
7354.28316,0.00150659471
7393.73348,0.00158106812
7433.1838,0.00166577086
7472.63412,0.00176263283
7492.35928,0.00181635366
7512.08444,0.00187406225
7541.67218,0.0019689916
7571.25992,0.00207538301
7590.98508,0.00215360315
7610.71024,0.00223841778
7630.4354,0.00233058408
7650.16056,0.0024309712
7669.88572,0.00254058062
7689.61088,0.0026605712
7709.33604,0.00279228968
7724.12991,0.00289971115
7743.85507,0.00305589905
7763.58023,0.00322882974
7784.29165,0.00343113773
7802.04429,0.00362398852
7811.90687,0.00373990336
7823.74197,0.00388811125
7843.46713,0.00415976822
7851.35719,0.00427802142
7863.19229,0.00446685508
7871.08235,0.00460100195
7882.91745,0.00481579429
7890.80751,0.0049688074
7902.64261,0.00521452931
7910.53267,0.00539010834
7922.36777,0.0056729769
7930.25783,0.00587577227
7942.09293,0.00620364394
7953.92802,0.00656316867
7965.76312,0.00695854136
7977.59822,0.00739467285
7989.43331,0.00787734099
8001.26841,0.00841338007
8013.1035,0.00901092004
8024.9386,0.009679691
8036.7737,0.0104314139
8042.69124,0.010842711
8048.60879,0.0112803063
8054.52634,0.0117464755
8062.4164,0.0124168872
8068.33395,0.0129600435
8076.22402,0.013744226
8082.14156,0.0143821401
8090.03163,0.015307105
8095.94918,0.0160629257
8103.83924,0.0171641008
8111.7293,0.0183862065
8119.61937,0.0197473881
8123.5644,0.020486734
8127.50943,0.0212692733
8131.45446,0.0220983878
8135.3995,0.0229777912
8139.34453,0.0239115685
8143.28956,0.0249042203
8147.23459,0.0259607136
8151.17962,0.0270865395
8155.12466,0.0282877797
8159.06969,0.0295711825
8163.01472,0.0309442496
8168.93227,0.0331905106
8172.8773,0.0348264524
8176.82233,0.0365858449
8180.76736,0.0384810706
8182.73988,0.0394839054
8186.68491,0.0416095252
8190.62994,0.0439091702
8192.60246,0.0451300455
8196.54749,0.0477268184
8200.49252,0.050549529
8202.46504,0.0520535544
8206.41007,0.0552647436
8208.38259,0.0569797633
8212.32762,0.0606503666
8215.28639,0.0636328923
8218.24517,0.0668323285
8221.20394,0.0702689367
8224.16272,0.0739652069
8227.12149,0.0779461216
8230.08026,0.0822394483
8233.03904,0.0868760623
8235.99781,0.0918902982
8238.95659,0.097320329
8240.9291,0.101192104
8242.90162,0.105281131
8245.86039,0.111854395
8247.83291,0.116553009
8249.80542,0.121524838
8252.7642,0.129535605
8254.73671,0.135273895
8256.70923,0.141355247
8258.68175,0.147802277
8260.65426,0.154638731
8262.62678,0.161889391
8264.59929,0.169579939
8266.57181,0.177736746
8268.54433,0.186386572
8270.51684,0.195556167
8272.48936,0.205271736
8275.44813,0.220922829
8278.40691,0.237932057
8281.36568,0.256353333
8284.52171,0.277582443
8287.67773,0.300406427
8290.83376,0.324699133
8293.98978,0.350211137
8302.66885,0.422645773
8305.82488,0.447511209
8308.1919,0.464624128
8309.76991,0.475020079
8311.34792,0.484428798
8312.92594,0.492703532
8314.50395,0.499707578
8316.08196,0.505319473
8317.65997,0.509437973
8319.23799,0.511986442
8320.9738,0.512919328
8322.39401,0.512209446
8323.97203,0.509878813
8325.55004,0.505968074
8327.12805,0.500549447
8328.70606,0.493720447
8330.28408,0.485599626
8331.86209,0.476321669
8333.4401,0.46603221
8335.80712,0.449033154
8338.96315,0.424238154
8347.64222,0.351632681
8350.79824,0.325978629
8353.95427,0.301526217
8357.11029,0.278536317
8359.47731,0.262338324
8362.23884,0.24460493
8365.19761,0.226989009
8367.17013,0.216020809
8369.14264,0.205651415
8371.11516,0.195858146
8374.07393,0.182193531
8376.04645,0.173728729
8378.01896,0.165748436
8380.97774,0.154627913
8382.95025,0.147742771
8384.92277,0.141251115
8387.88154,0.132199214
8390.84032,0.123902723
8393.79909,0.116291473
8396.75787,0.109301334
8399.71664,0.102874012
8402.67541,0.0969567375
8405.63419,0.0915018716
8409.57922,0.084874461
8411.55174,0.0818119768
8415.49677,0.0761388872
8417.46928,0.0735101049
8421.41432,0.0686271895
8423.38683,0.0663583542
8427.33186,0.0621328324
8431.2769,0.0582844324
8433.24941,0.0564884387
8437.19444,0.0531294135
8441.13948,0.0500532069
8445.08451,0.0472301026
8449.02954,0.0446340284
8452.97457,0.0422420587
8456.9196,0.0400339895
8460.86464,0.0379919753
8464.80967,0.0361002184
8468.7547,0.0343447028
8472.69973,0.032712966
8476.64476,0.0311939029
8480.5898,0.0297775973
8484.53483,0.0284551758
8490.45238,0.0266303962
8494.39741,0.0255096198
8498.34244,0.0244582149
8504.25999,0.0229992643
8508.20502,0.0220983049
8512.15005,0.0212496032
8518.0676,0.0200660867
8523.98515,0.0189797107
8529.9027,0.017980261
8537.79276,0.0167676204
8541.73779,0.0162075532
8549.62786,0.0151699506
8553.57289,0.0146888977
8561.46295,0.0137945037
8565.40798,0.0133784019
8573.29805,0.012602246
8577.24308,0.0122400022
8587.10566,0.0114019569
8596.96824,0.0106499356
8604.8583,0.0101025981
8608.80334,0.00984527821
8616.6934,0.00936054236
8628.5285,0.0087008423
8636.41856,0.00830093981
8644.30862,0.00792945414
8655.68994,0.0074384305
8662.67243,0.00716080279
8671.92385,0.00681781607
8683.75894,0.00641621839
8691.64901,0.00616932705
8699.53907,0.0059375315
8707.42914,0.00571963079
8715.3192,0.00551454061
8723.20926,0.00532127996
8738.98939,0.00496677212
8754.76952,0.00464992223
8770.54965,0.00436559526
8786.32978,0.0041094999
8802.1099,0.00387802793
8817.89003,0.00366812807
8829.72513,0.00352328451
8845.50526,0.00334515834
8857.34035,0.00322172196
8869.17545,0.00310616012
8882.98306,0.00298042079
8902.70822,0.00281603077
8912.5708,0.00273991163
8932.29596,0.00259854137
8942.15854,0.00253283681
8961.8837,0.00241038365
8971.74628,0.00235327793
8991.47144,0.00224651219
9001.33402,0.00219656787
9030.92176,0.00205898676
9060.5095,0.00193754054
9080.23466,0.00186432024
9109.8224,0.00176458376
9129.54756,0.00170406732
9159.1353,0.00162114753
9178.86046,0.00157054981
9198.58562,0.00152330953
9228.17336,0.00145811373
9247.89852,0.00141805551
9277.48626,0.0013625218
9297.21142,0.00132825176
9326.79916,0.00128054839
9356.3869,0.00123684086
9385.97464,0.0011966903
9425.42496,0.00114803909
9484.60044,0.00108401567
9543.77592,0.00102892453
9602.9514,0.000981149262
9642.40172,0.000952726036
9701.5772,0.00091445995
9760.75268,0.000880681746
9819.92816,0.000850829754
9879.10364,0.000824266625
9938.27912,0.000800460301
9997.4546,0.000779026261
10056.6301,0.000759644617
10115.8056,0.000742047524
10174.981,0.000726009357
10234.1565,0.00071133898
10313.0572,0.000693628276
10451.1333,0.000666858304
10569.4842,0.000647392175
10712.9899,0.000627410888
10885.0868,0.000607208363
11042.8881,0.000591472126
11200.6894,0.000577871864
11397.941,0.000563527878
11595.1926,0.000551172483
11792.4442,0.000540367339
12029.1461,0.000528999501
12186.9474,0.000522227455
12443.3744,0.000512843876
12739.2518,0.000503321337
13035.1292,0.000494888093
13264.49,0.000488952073
13607.1589,0.000481588933
14396.1653,0.000467397442
14948.4698,0.000460064507
15604.3,0.000453057896
16427.6952,0.000447631521
17021.9419,0.000445777912
17671.04,0.000445966064
18236.1012,0.000448865096
18807.2389,0.00045431131
19296.7855,0.000461639531
19704.741,0.000470401991
20112.6965,0.000482448154
20357.4698,0.000491481065
20556.1638,0.000500032491
20765.4252,0.000510431975
20928.6074,0.000519694842
21108.76,0.000531314634
21287.6083,0.000544588473
21467.1087,0.000559876627
21597.6544,0.000572414134
21793.4731,0.00059385961
21924.0188,0.000610208614
22054.5646,0.000628481972
22152.4739,0.000643625015
22250.3832,0.000660160393
22348.2925,0.00067825527
22446.2019,0.000698178028
22544.1112,0.000720078458
22642.0205,0.000744215933
22739.9298,0.000770895528
22837.8391,0.000800476042
22935.7484,0.000833381714
23033.6578,0.000870117011
23131.5671,0.000911285442
23229.4764,0.000957613698
23327.3857,0.00100998289
23392.6586,0.00104877373
23490.5679,0.00111372327
23555.8408,0.00116219125
23588.4772,0.00118817197
23653.7501,0.00124400692
23686.3865,0.00127403189
23751.6594,0.00133877796
23784.2959,0.00137371632
23849.5687,0.00144933943
23898.5234,0.00151164164
23947.478,0.00157933563
23996.4327,0.00165305064
24045.3874,0.00173350896
24094.342,0.00182154264
24143.2967,0.00191811373
24192.2513,0.00202433882
24224.8878,0.0021011528
24257.5242,0.00218326968
24306.4789,0.00231747013
24355.4335,0.00246660775
24404.3882,0.00263294953
24437.0246,0.00275467309
24469.6611,0.00288610575
24518.6157,0.00310373835
24551.2522,0.0032642274
24583.8886,0.00343864392
24616.525,0.00362857712
24649.1615,0.00383583721
24681.7979,0.00406249053
24706.2753,0.00424661668
24738.9117,0.00451310116
24771.5481,0.00480634265
24804.1846,0.00512979372
24836.821,0.00548742732
24869.4575,0.00588381866
24885.7757,0.00609816529
24910.253,0.00644191233
24926.5712,0.00668705815
24942.8894,0.00694599454
24959.2077,0.0072196521
24983.685,0.00765993577
25000.0032,0.00797489808
25016.3214,0.00830836493
25032.6396,0.0086615772
25057.117,0.0092313123
25073.4352,0.00963979359
25097.9125,0.0102992211
25122.3899,0.0110193959
25146.8672,0.0118057931
25171.3445,0.0126639478
25195.8218,0.0135992214
25220.2992,0.0146164554
25236.6174,0.015342096
25252.9356,0.0161066494
25279.0448,0.017411429
25292.0993,0.0181009469
25312.7136,0.0192379782
25344.3176,0.0210842199
25435.6997,0.0267305718
25461.8088,0.0282345708
25481.3907,0.0292574687
25494.4453,0.0298718831
25507.4998,0.0304214585
25520.5544,0.0308973719
25533.609,0.0312915545
25546.6636,0.0315970083
25559.7181,0.0318081012
25580.6055,0.0319402241
25592.3546,0.0319011049
25605.4092,0.0317623591
25618.4637,0.0315258299
25631.5183,0.0311958454
25644.5729,0.0307783146
25657.6275,0.0302804687
25670.682,0.029710561
25683.7366,0.029077547
25703.3185,0.0280301645
25729.4276,0.026499961
25801.2278,0.0220093416
25840.3915,0.0196526314
25866.5007,0.0181813272
25879.5552,0.0174809755
25905.6644,0.0161551187
25921.9826,0.0153780097
25938.3008,0.0146404111
25962.7782,0.0136064912
25979.0964,0.012963908
25995.4146,0.012357079
26019.8919,0.011510474
26044.3693,0.0107353044
26068.8466,0.0100259336
26093.3239,0.00937682691
26109.6421,0.00897494175
26134.1195,0.00841466533
26150.4377,0.00806746899
26166.7559,0.00773978955
26183.0741,0.00743039087
26207.5515,0.00699804628
26223.8697,0.0067294206
26240.1879,0.00647531614
26256.5061,0.00623481008
26280.9834,0.00589767967
26297.3017,0.00568752693
26329.9381,0.00529903684
26362.5745,0.00494870513
26395.211,0.00463201236
26427.8474,0.00434503703
26460.4839,0.00408437366
26493.1203,0.00384706118
26525.7567,0.00363052084
26558.3932,0.00343252451
26574.7114,0.00333984884
26607.3478,0.0031660283
26639.9843,0.00300625994
26672.6207,0.00285912566
26688.9389,0.00278990008
26721.7904,0.00265859599
26749.6891,0.00255490237
26792.0863,0.00240971262
26821.8486,0.00231588509
26847.5397,0.00223977789
26886.5676,0.00213209073
26906.0816,0.00208156639
26939.6343,0.00199945675
26977.2584,0.00191400514
27024.4288,0.00181582233
27071.0377,0.00172760399
27132.247,0.00162355713
27183.9098,0.00154507612
27251.2961,0.00145425486
27318.6825,0.00137552077
27363.6067,0.00132955863
27408.5309,0.0012890248
27453.4552,0.00125453875
27475.9173,0.00123994163
27509.6104,0.00122210988
27543.3036,0.00121054439
27565.7657,0.00120756114
27576.9968,0.0012079234
27599.4589,0.00121347034
27610.6899,0.00121928593
27621.921,0.0012277025
27633.152,0.00123931379
27644.3831,0.00125490566
27655.6142,0.00127553537
27661.2297,0.00128817238
27669.653,0.00131066559
27675.2685,0.00132843629
27683.6918,0.00136015283
27689.3073,0.00138533421
27694.9229,0.00141440869
27700.5384,0.00144809373
27706.1539,0.00148728147
27711.7694,0.00153309239
27717.385,0.00158694912
27723.0005,0.0016506797
27725.8083,0.00168696473
27728.616,0.00172666447
27731.4238,0.00177019758
27734.2316,0.00181804901
27737.0393,0.00187078302
27739.8471,0.00192905928
27744.0587,0.00202859847
27746.8665,0.0021044371
27748.2704,0.00214562651
27751.0781,0.00223539466
27752.482,0.00228436355
27755.2898,0.0023915975
27756.6937,0.00245038437
27759.5014,0.00257981797
27760.9053,0.00265117524
27763.0111,0.00276767067
27765.117,0.00289697729
27767.2228,0.0030410197
27769.3286,0.00320209769
27771.4344,0.00338297755
27773.5402,0.00358701019
27775.6461,0.00381828578
27777.7519,0.00408183819
27778.4538,0.00417790051
27779.8577,0.00438391846
27780.5597,0.00449447386
27781.9635,0.00473236519
27782.6655,0.00486046225
27784.0694,0.00513711335
27785.0521,0.00534871948
27786.3156,0.00564532339
27787.1579,0.00586011338
27788.1406,0.00612992786
27789.2637,0.00646651413
27790.3868,0.00683707445
27791.5099,0.0072463175
27792.633,0.00769979459
27793.7561,0.00820408667
27794.3177,0.00847768354
27795.16,0.00891801037
27795.7216,0.00923335125
27796.2831,0.00956775744
27796.8447,0.00992278991
27797.4062,0.0103001721
27797.9678,0.0107018105
27798.5293,0.0111298184
27799.0909,0.0115865436
27799.9332,0.0123312747
27800.4948,0.0128719008
27801.0563,0.0134518116
27801.6179,0.0140748841
27802.4602,0.015100119
27803.0218,0.0158514432
27803.3025,0.0162496144
27803.8641,0.0170950601
27804.4257,0.0180120864
27804.7064,0.018499975
27805.268,0.0195402093
27805.8295,0.020674987
27806.1103,0.0212814191
27806.6719,0.022580525
27806.9526,0.0232768457
27807.5142,0.0247732502
27807.795,0.0255779302
27808.3565,0.0273132023
27808.6373,0.028249648
27809.1989,0.0302767532
27809.4796,0.0313749531
27809.9008,0.0331400208
