energy [eV],cross section [b]
1e-05,1042.52006
1.0607443e-05,1012.22983
1.15186074e-05,971.369801
1.24297718e-05,935.089341
1.31848096e-05,907.920529
1.39398473e-05,882.990114
1.4694885e-05,860.006701
1.54499227e-05,838.729382
1.63884174e-05,814.360325
1.73269121e-05,791.998997
1.82654068e-05,771.384034
1.97871652e-05,741.128811
2.15369564e-05,710.384558
2.32867476e-05,683.174188
2.53199783e-05,655.170635
2.74949288e-05,628.723981
2.96698794e-05,605.241463
3.14721553e-05,587.656462
3.32744312e-05,571.520266
3.59778451e-05,549.629046
3.7999077e-05,534.811757
4.02392648e-05,519.711941
4.24794526e-05,505.822917
4.47196405e-05,492.991067
4.72319856e-05,479.700724
5.0016488e-05,466.15697
5.28009903e-05,453.699237
5.55854927e-05,442.189735
6.04388168e-05,424.06452
6.56304262e-05,406.947016
7.08220355e-05,391.748051
7.51240702e-05,380.366237
8.15771222e-05,365.012745
8.80301741e-05,351.380083
9.33775051e-05,341.171207
9.8724836e-05,331.803435
0.000106745832,319.094632
0.000112742803,310.492563
0.000119389413,301.726484
0.000126036024,293.663329
0.000132682634,286.213917
0.000140136731,278.498339
0.000148398316,270.635657
0.000160790694,259.998234
0.00017418676,249.801329
0.000189590202,239.439639
0.000204993644,230.269
0.00022289221,220.831071
0.000235656295,214.76796
0.000254802422,206.542451
0.000277049931,198.077208
0.000292915397,192.638975
0.00032464633,182.984149
0.000344366743,177.668431
0.000364087155,172.790691
0.00040352798,164.130954
0.000440296015,157.129943
0.000464808037,152.931584
0.00048932006,149.052809
0.000532043957,142.944542
0.000577745785,137.175934
0.000623447612,132.053927
0.000680253941,126.421799
0.000718124827,123.044345
0.000774931156,118.450328
0.000822003803,115.010118
0.000892612774,110.36951
0.000939685421,107.570839
0.000992476858,104.672203
0.00105098708,101.718337
0.00110949731,99.0013686
0.00116800754,96.4912398
0.00123362609,93.8914608
0.0013427164,89.9989878
0.00148817015,85.4907937
0.00162376693,81.8462143
0.0017593637,78.6316571
0.00190594278,75.5503206
0.00201830524,73.4192733
0.00218684893,70.5362737
0.00236904338,67.7727783
0.00250870736,65.8615646
0.00264837133,64.1036645
0.0028578673,61.7126428
0.00303146643,59.9222004
0.00320506557,58.2793416
0.00355226384,55.3628473
0.00387593348,53.0051702
0.00409171325,51.5914075
0.00430749301,50.2853253
0.00468359222,48.2286526
0.0050859062,46.2865146
0.00548822019,44.5622269
0.00582159826,43.2711062
0.00632166536,41.529631
0.00682173246,39.9835367
0.00723611379,38.8258715
0.00765049513,37.763697
0.00827206712,36.322884
0.00873679106,35.3477915
0.0092518576,34.3542308
0.00976692414,33.4404604
0.0102819907,32.5963538
0.0111797399,31.26729
0.0121400638,30.0124182
0.0134342968,28.5394839
0.014436024,27.5384725
0.0158216183,26.3142216
0.0172726118,25.1939706
0.0187563049,24.1860728
0.0202399979,23.2914898
0.0214694623,22.6218178
0.0226989267,22.0075197
0.0239283912,21.441382
0.0253,20.8593529
0.0267926601,20.277679
0.0282853202,19.742894
0.0297779803,19.2490402
0.0312706404,18.7911681
0.0331701534,18.2540479
0.0350696665,17.7614363
0.0369691795,17.3075337
0.0400492182,16.6418257
0.0435907952,15.9659797
0.0471323722,15.368414
0.0512476308,14.7540951
0.0541823638,14.3598437
0.0585844632,13.8255447
0.0618757327,13.4643067
0.0655235388,13.0965562
0.0709952479,12.599696
0.074643054,12.2996747
0.0791771937,11.9564848
0.0837113334,11.6420089
0.0882454732,11.3525017
0.0927796129,11.0848674
0.0984154451,10.778839
0.104051277,10.4985346
0.10968711,10.2405979
0.118825547,9.86296473
0.129333363,9.48050515
0.13984118,9.14324655
0.152051102,8.7975643
0.165112078,8.4726197
0.178173054,8.18552879
0.188996051,7.97154973
0.205230546,7.68447384
0.221465041,7.43131049
0.24502932,7.11241851
0.260152656,6.93262559
0.275275992,6.76905799
0.300358162,6.52796785
0.325440331,6.3181408
0.362946153,6.0507463
0.404514905,5.8051301
0.437880115,5.63823176
0.475622616,5.47547373
0.515383631,5.32857689
0.560749003,5.18621867
0.592860703,5.0991123
0.624972404,5.02175043
0.681650008,4.90567625
0.733847071,4.81848341
0.789109389,4.74356919
0.847950716,4.68072381
0.913168129,4.62875824
1.01518986,4.57958269
1.0953421,4.56501388
1.13857834,4.56514507
1.22505083,4.58116358
1.32992682,4.6275121
1.42681996,4.69587323
1.54087647,4.80801364
1.6285891,4.9184439
1.68623742,5.00310472
1.74388574,5.09788494
1.80153407,5.2033522
1.85918239,5.32018028
1.96201983,5.55935014
2.06095153,5.83116402
2.14742401,6.10727566
2.20507234,6.31402639
2.26272066,6.54108351
2.34919315,6.92461275
2.40063833,7.1803969
2.46448979,7.53052598
2.52213812,7.88160961
2.57978644,8.27037052
2.63743477,8.70194409
2.69508309,9.1824163
2.75273141,9.71904013
2.78155558,10.0110611
2.8392039,10.648765
2.86802806,10.9973308
2.9112643,11.5619671
2.95450055,12.182519
2.9976672,12.8653333
3.04097303,13.6227036
3.08420928,14.4615961
3.12744552,15.39558
3.17068176,16.4395128
3.21391801,17.6112998
3.25715425,18.9326768
3.27156633,19.4108107
3.30039049,20.4302392
3.31480257,20.9740403
3.34362673,22.1368087
3.36524486,23.0808701
3.38686298,24.0932712
3.40127506,24.809486
3.43009922,26.3510812
3.4445113,27.1814808
3.47333546,28.9757229
3.48774754,29.9460416
3.51657171,32.0515719
3.53818983,33.7918836
3.55980795,35.6888439
3.58142607,37.7619225
3.60304419,40.0337199
3.62466231,42.5305921
3.64628044,45.2834256
3.66789856,48.3286064
3.68231064,50.5421076
3.69672272,52.9192659
3.71834084,56.8287763
3.73275292,59.6925733
3.74391698,62.0691742
3.75716206,65.0856676
3.76878312,67.9248221
3.78319521,71.7222059
3.79760729,75.8598582
3.80481333,78.0691756
3.81922541,82.7981071
3.83363749,87.9853878
3.84804957,93.6924022
3.86246165,99.9911704
3.87687373,106.966636
3.88552098,111.517883
3.89272702,115.54204
3.90569789,123.370138
3.91146273,127.113122
3.92010997,133.062776
3.92587481,137.269533
3.93452206,143.972064
3.94028689,148.722591
3.94893414,156.310726
3.95758139,164.506307
3.96622863,173.37597
3.97487588,182.995735
3.98352313,193.452625
3.99217038,204.846631
4.00081763,217.293096
4.00946488,230.925621
4.01811213,245.899634
4.02675937,262.396795
4.03540662,280.630473
4.04405387,300.852587
4.0498187,315.584133
4.05558354,331.433616
4.06423078,357.561005
4.06999562,376.745227
4.07576045,397.524354
4.08152528,420.079272
4.08584891,438.284293
4.09017253,457.702567
4.09593736,485.672003
4.1017022,516.289703
4.10746703,549.898174
4.11323186,586.896562
4.11899669,627.752144
4.12476153,673.01459
4.13052636,723.333772
4.13340877,750.625523
4.13629119,779.48217
4.13917361,810.024076
4.14349723,859.289001
4.14637965,894.650222
4.15070327,951.88765
4.15358569,993.118971
4.15790931,1060.11192
4.16079173,1108.56006
4.16511535,1187.60652
4.16799777,1245.01702
4.17232139,1339.1134
4.17520381,1407.77615
4.17952743,1520.87841
4.18096864,1561.55061
4.18385106,1647.8185
4.18529227,1693.58694
4.18817468,1790.86675
4.18961589,1842.58629
4.19249831,1952.75722
4.19393951,2011.46072
4.19682193,2136.79903
4.19970435,2273.75302
4.20258676,2423.72749
4.20546918,2588.33138
4.20763099,2722.48547
4.2097928,2866.78003
4.21267522,3076.64915
4.21555764,3308.91341
4.21844005,3566.59092
4.21988126,3706.02629
4.22132247,3853.15781
4.22276368,4008.50226
4.22420488,4172.61333
4.22564609,4346.08374
4.2270873,4529.54728
4.22852851,4723.68061
4.22996972,4929.20486
4.23141092,5146.88678
4.23285213,5377.53932
4.23429334,5622.02138
4.23573455,5881.23654
4.23717576,6156.1303
4.23933757,6600.02678
4.24077878,6918.4806
4.24294059,7432.53885
4.2451024,7993.33436
4.24726421,8604.14948
4.24942603,9267.81919
4.25086723,9740.67812
4.25216432,10187.3891
4.25389377,10814.1202
4.25504674,11251.358
4.25735267,12170.0191
4.26081157,13642.2409
4.26715289,16453.2399
4.26945882,17414.3252
4.27118827,18073.8163
4.27234123,18473.3311
4.2734942,18833.8633
4.27464717,19149.7472
4.27580013,19415.7291
4.2769531,19627.1688
4.27810607,19780.2305
4.27925903,19872.0509
4.280412,19900.8695
4.28214145,19825.0424
4.28329442,19696.4859
4.28444738,19508.1401
4.28560035,19263.4266
4.28675332,18966.6529
4.28790628,18622.8299
4.28905925,18237.4735
4.2907887,17594.3277
4.29309463,16646.1966
4.30001243,13575.2371
4.30347133,12100.2603
4.30577726,11180.7733
4.30693023,10743.3661
4.30923616,9915.6788
4.31067737,9430.74028
4.31211858,8970.55155
4.31428039,8325.5965
4.3164422,7732.82031
4.31860401,7189.15044
4.32076583,6691.17323
4.32292764,6235.35852
4.32508945,5818.21135
4.32653066,5559.9274
4.32869247,5199.84746
4.33013368,4976.71744
4.33157489,4766.14023
4.3330161,4567.3234
4.33517791,4289.52957
4.33661912,4116.94927
4.33806032,3953.71433
4.33950153,3799.23106
4.34094274,3652.94503
4.34238395,3514.33894
4.34526636,3258.26999
4.34814878,3027.54662
4.3510312,2819.15083
4.35391361,2630.46375
4.35679603,2459.21155
4.35967845,2303.41781
4.36256086,2161.36205
4.36544328,2031.544
4.36688449,1970.80785
4.3697669,1856.94055
4.37120811,1803.54106
4.37409053,1703.20161
4.37553173,1656.04054
4.37841415,1567.23283
4.37985536,1525.40308
4.38273778,1446.4743
4.38417898,1409.22286
4.38850261,1305.49619
4.39282623,1212.54589
4.39714986,1128.96132
4.40003227,1077.84495
4.4043559,1007.31094
4.40723831,963.9894
4.41156194,903.968008
4.41444435,866.957844
4.41876798,815.489883
4.42165039,783.639319
4.42597402,739.195332
4.42885643,711.600386
4.43318006,672.973835
4.43606247,648.917812
4.44182731,604.466383
4.44759214,564.370426
4.45335697,528.084857
4.4591218,495.146469
4.46488664,465.159744
4.47065147,437.785417
4.4764163,412.731221
4.48218113,389.744341
4.48794597,368.605238
4.49082838,358.667826
4.49659322,339.94925
4.50235805,322.643932
4.5110053,299.038975
4.51677013,284.699096
4.52253496,271.356754
4.53118221,253.019855
4.53982946,236.464622
4.54847671,221.468835
4.55712396,207.84372
4.5657712,195.428107
4.57441845,184.083743
4.5830657,173.6915
4.59171295,164.1483
4.59747778,158.213146
4.60900745,147.262303
4.61477228,142.20523
4.62630194,132.836915
4.63783161,124.35854
4.64359644,120.418449
4.65512611,113.076306
4.66809698,105.586469
4.68106785,98.8124946
4.69115631,93.9819732
4.70556839,87.6695867
4.71998047,81.9692504
4.73439255,76.8047145
4.74880463,72.1112131
4.75601067,69.9234976
4.77042275,65.8353837
4.77762879,63.9240019
4.79204088,60.3419862
4.79924692,58.662523
4.813659,55.5068182
4.82086504,54.0234144
4.83527712,51.2293201
4.84248316,49.9127714
4.86410128,46.2537122
4.87851336,44.0334308
4.90013148,40.9914549
4.91454356,39.1356045
4.93616169,36.5801393
4.95057377,35.0135791
4.97219189,32.8467669
4.98660397,31.5127238
5.00822209,29.6600713
5.02263417,28.5150124
5.03704625,27.4356243
5.05145833,26.4170215
5.07307646,24.9934844
5.08748854,24.1082722
5.1163127,22.4752927
5.14513686,21.0054167
5.17396102,19.677826
5.20278518,18.4749124
5.23160935,17.3817025
5.26043351,16.3853995
5.28925767,15.475015
5.31808183,14.6410709
5.33249391,14.2501548
5.36131807,13.5158205
5.39014224,12.8393592
5.43337848,11.920626
5.46220264,11.3648791
5.4910268,10.8495098
5.53426305,10.1440988
5.57749929,9.51032114
5.62073553,8.93901808
5.66397178,8.42244948
5.70720802,7.95403878
5.75044426,7.52817009
5.78432281,7.22105186
5.83691675,6.78545229
5.86574091,6.56592691
5.92338923,6.16312282
5.9522134,5.97819522
6.00986172,5.63768191
6.03868588,5.48083131
6.09633421,5.19115766
6.12515837,5.05735221
6.18280669,4.80962927
6.22604294,4.63973463
6.26927918,4.48219159
6.3269275,4.28961296
6.35575166,4.20021668
6.44222415,3.95681929
6.49987247,3.81320682
6.58634496,3.6223383
6.64399328,3.50977991
6.73046577,3.36054694
6.78811409,3.27293535
6.87458658,3.15760925
6.9322349,3.0906071
6.98988323,3.03093383
7.07635571,2.95426633
7.1628282,2.89199528
7.22073995,2.85788299
7.28265732,2.82786491
7.36814809,2.79702701
7.45590905,2.7778454
7.55559563,2.77118164
7.65528222,2.78068865
7.7549688,2.80680582
7.85465539,2.85036237
7.95434197,2.91262502
8.05402856,2.99537029
8.15371514,3.10098835
8.25340173,3.2326292
8.31985945,3.3368308
8.35308831,3.3944067
8.41954603,3.52158705
8.45277489,3.59168449
8.51923262,3.74630671
8.58569034,3.92237985
8.6189192,4.01941663
8.68537692,4.23375227
8.71860579,4.35209905
8.76844908,4.5452862
8.81829237,4.7593824
8.86813566,4.99713536
8.91074208,5.22154933
8.93673406,5.36909379
8.96782225,5.55716095
9.00105111,5.77337326
9.03427997,6.00682514
9.06750883,6.25929232
9.10073769,6.53279016
9.15058099,6.98757702
9.18380985,7.32442154
9.21703871,7.69188755
9.25026757,8.09369268
9.29180365,8.65086252
9.31672529,9.01824476
9.33333972,9.27845733
9.36656859,9.83932508
9.39979745,10.4604622
9.41641188,10.7963329
9.44964074,11.524966
9.4828696,12.3392651
9.49948403,12.7827646
9.52440568,13.4989921
9.54102011,14.013746
9.56594175,14.8481637
9.58255619,15.4501997
9.60747783,16.4301749
9.62409226,17.1403049
9.64901391,18.301628
9.66562834,19.1472696
9.69054999,20.5374657
9.70716442,21.5553259
9.73208606,23.238591
9.74039328,23.8459985
9.75700771,25.1381565
9.76531492,25.825857
9.78192935,27.292692
9.79854379,28.8938154
9.806851,29.7499132
9.82346543,31.5849813
9.83177265,32.5692436
9.84838708,34.6861133
9.85669429,35.8254345
9.87330872,38.2848487
9.88493883,40.1650283
9.89989181,42.7991501
9.9148448,45.7085241
9.92813635,48.5576369
9.94142789,51.6882201
9.95471943,55.1385603
9.96801098,58.9536699
9.98130252,63.1867525
9.99459407,67.9010545
10.0012398,70.4617402
10.0112085,74.5873042
10.0178543,77.5451376
10.0245,80.6847819
10.0311458,84.0214084
10.0411145,89.4328915
10.0477602,93.3394391
10.0577289,99.7021485
10.0643747,104.31565
10.0743433,111.865296
10.0809891,117.366347
10.0909578,126.41599
10.0976035,133.046374
10.1009264,136.559743
10.1075722,144.018769
10.114218,152.107915
10.1175409,156.411058
10.1241866,165.584669
10.1275095,170.477415
10.1341553,180.936777
10.1374782,186.531029
10.1441239,198.52592
10.1491083,208.296475
10.1540926,218.804407
10.1590769,230.125053
10.1640613,242.343505
10.1690456,255.556149
10.1756914,274.910944
10.1806757,290.895982
10.1839986,302.333238
10.1873215,314.452102
10.1923058,334.028906
10.1956287,348.101917
10.1989516,363.072237
10.2022745,379.016389
10.2055973,396.019056
10.2089202,414.17412
10.2122431,433.585861
10.215566,454.37033
10.2188889,476.656929
10.2222118,500.59024
10.2255347,526.332143
10.2288575,554.064261
10.2321804,583.990814
10.2355033,616.341928
10.2371648,633.506631
10.2404876,669.992405
10.2438105,709.618358
10.245472,730.718234
10.2487949,775.736541
10.2521177,824.878962
10.2537792,851.148344
10.2571021,907.424479
10.2587635,937.582235
10.2612557,985.576868
10.2629171,1019.545
10.2654093,1073.70368
10.2670707,1112.10558
10.2695629,1173.44935
10.2720551,1239.6747
10.2745472,1311.26846
10.2770394,1388.77198
10.2795316,1472.78687
10.2820237,1563.98109
10.2845159,1663.095
10.287008,1770.94718
10.2895002,1888.43945
10.2919924,2016.56052
10.2936538,2108.40751
10.2953153,2205.79533
10.2978074,2363.04889
10.2994689,2475.87674
10.3011303,2595.54742
10.3027918,2722.45244
10.3044532,2856.98267
10.3061146,2999.52033
10.3077761,3150.42862
10.3094375,3310.03845
10.3119297,3566.36695
10.3142557,3824.39339
10.3162494,4060.08136
10.3189078,4394.62011
10.3215661,4750.50657
10.3242244,5124.00074
10.3315347,6182.26992
10.334193,6544.37903
10.3361868,6792.99741
10.3375159,6943.69093
10.3388451,7079.75877
10.3401742,7199.06752
10.3415034,7299.6378
10.3428325,7379.72006
10.3441617,7437.86663
10.3454908,7472.99487
10.34682,7484.4364
10.3481492,7471.96835
10.3494783,7435.82401
10.3508075,7376.68183
10.3521366,7295.63386
10.3534658,7194.13622
10.3547949,7073.94573
10.3561241,6937.04775
10.3574532,6785.58024
10.359447,6535.9128
10.3621053,6172.62037
10.3694156,5112.29198
10.3734031,4557.85657
10.3760614,4212.1365
10.3787197,3889.02908
10.3800489,3736.36729
10.3817103,3553.96393
10.3842025,3297.73439
10.3866946,3061.74572
10.3883561,2915.18107
10.3908482,2710.59997
10.3925097,2583.83534
10.3941711,2464.31178
10.3958326,2351.63617
10.397494,2245.42097
10.3991555,2145.28866
10.4008169,2050.87486
10.4024783,1961.83043
10.4041398,1877.82278
10.4058012,1798.53663
10.4074627,1723.6742
10.4091241,1652.95517
10.4107856,1586.11626
10.412447,1522.91077
10.4149392,1434.41434
10.4166006,1379.31528
10.4182621,1327.10615
10.4215849,1230.64449
10.4249078,1143.72161
10.4265693,1103.4764
10.4298922,1028.78118
10.4315536,994.102021
10.4348765,929.564929
10.4365379,899.521356
10.4398608,843.46577
10.4415223,817.302863
10.4448451,768.366077
10.4465066,745.46904
10.4498295,702.538931
10.4514909,682.404868
10.4548138,644.5696
10.4564752,626.785173
10.4597981,593.293449
10.4614596,577.517227
10.4647825,547.746903
10.4697668,507.1287
10.4730897,482.45254
10.478074,448.613984
10.4813969,427.955506
10.4863812,399.495457
10.4897041,382.042729
10.493027,365.689806
10.4963499,350.347779
10.4996728,335.936387
10.5029956,322.383048
10.5063185,309.622006
10.5096414,297.59359
10.5129643,286.243559
10.5162872,275.522532
10.5196101,265.38548
10.522933,255.79128
10.5295787,238.084158
10.5362245,222.136411
10.5428703,207.724762
10.5461932,201.034668
10.5528389,188.581222
10.5594847,177.241682
10.5661305,166.888139
10.5694534,162.046068
10.5760991,152.969634
10.579422,148.713104
10.5860678,140.713484
10.5893907,136.952376
10.5960365,129.866817
10.5993593,126.527604
10.609328,117.245036
10.6192967,108.944634
10.6292653,101.493301
10.639234,94.7796436
10.6458798,90.6667557
10.6558484,84.9813612
10.6624942,81.4829703
10.6724628,76.6269689
10.6791086,73.6269908
10.6890773,69.4472051
10.695723,66.8556382
10.7023688,64.4067522
10.7090146,62.0903049
10.7189832,58.8437433
10.725629,56.819263
10.7389206,53.0727298
10.7522121,49.686467
10.7655037,46.6158804
10.7787952,43.8230517
10.7937482,40.9729636
10.8087012,38.3942483
10.8203313,36.5547118
10.8369457,34.1499613
10.8452529,33.0365812
10.8618674,30.9690332
10.8701746,30.0082318
10.886789,28.2178677
10.8950962,27.3830795
10.9117106,25.8226422
10.9200179,25.0928322
10.9366323,23.7247078
10.9532467,22.4676126
10.9615539,21.8769997
10.9781684,20.7650799
11.00309,19.2532224
11.0197044,18.3375484
11.0363189,17.4874887
11.0529333,16.6969525
11.0695477,15.960539
11.0930057,15.0037538
11.1110838,14.3260435
11.1276982,13.7444995
11.1526199,12.9391385
11.1692343,12.442715
11.1858488,11.9757222
11.2024632,11.5358994
11.2190776,11.1211992
11.235692,10.7297639
11.2606137,10.1825792
11.2938426,9.51988295
11.3270714,8.92429942
11.3603003,8.38719508
11.3935291,7.90128685
11.426758,7.46039709
11.4599869,7.05925891
11.4766013,6.87216082
11.5098302,6.52239117
11.543059,6.20224105
11.5762879,5.90858739
11.5929023,5.77083436
11.6261312,5.51194688
11.65936,5.27340482
11.7092033,4.94956154
11.7424322,4.75390184
11.775661,4.57275694
11.8255043,4.32556339
11.8753476,4.10461998
11.9251909,3.9068854
11.9750342,3.72980651
12.0248775,3.57123699
12.0747208,3.42937309
12.13089,3.28764629
12.1876115,3.16229797
12.2427396,3.05618732
12.2978678,2.96449371
12.3346199,2.91096729
12.389748,2.84163786
12.4265001,2.80255169
12.4816283,2.75447185
12.5183804,2.7294513
12.5735085,2.70262859
12.6102606,2.69207937
12.6653887,2.68778176
12.7021408,2.6930384
12.757269,2.71411986
12.7940211,2.73774677
12.8491492,2.78926267
12.8859013,2.83560454
12.9226534,2.89282131
12.9410295,2.92592267
12.9777816,3.00209808
13.0145337,3.09314066
13.0512858,3.20130996
13.0880378,3.32939716
13.1064139,3.40196332
13.133978,3.52288543
13.152354,3.61241026
13.1707301,3.70985026
13.1891061,3.81597806
13.2074822,3.93166834
13.2258582,4.05791422
13.2442343,4.19584678
13.2717983,4.42753637
13.2901744,4.60076403
13.3085504,4.79110798
13.3269265,5.00069009
13.3453025,5.23197774
13.3636786,5.4878533
13.3820546,5.77170041
13.4004307,6.08751193
13.4151315,6.36633032
13.4316699,6.7116097
13.4445332,7.00618632
13.459234,7.37432461
13.4665844,7.57228682
13.4812853,7.99912877
13.4959861,8.47201038
13.5033365,8.72776338
13.5180374,9.28265087
13.5327382,9.90278908
13.5437638,10.4169197
13.5547895,10.9787693
13.5621399,11.3827704
13.5731655,12.0379527
13.5841911,12.7591002
13.5952168,13.5552534
13.6025672,14.1328697
13.6135928,15.0786174
13.6246184,16.1322799
13.6356441,17.3107269
13.6466697,18.6342382
13.6503449,19.1117451
13.6576953,20.1273601
13.6613705,20.6677502
13.668721,21.8200194
