energy [eV],cross section [b]
1e-05,44.6831109
1.09509643e-05,42.6989524
1.19019287e-05,40.9576217
1.29332782e-05,39.2906391
1.4125398e-05,37.5961224
1.53175178e-05,36.1034915
1.62130345e-05,35.0922527
1.72093212e-05,34.0613244
1.87037513e-05,32.6722499
1.9700038e-05,31.8353676
2.09489736e-05,30.8718053
2.21979091e-05,29.9907527
2.34468447e-05,29.181069
2.46957803e-05,28.4336115
2.6261434e-05,27.5730102
2.86099146e-05,26.4170987
3.09583952e-05,25.3953487
3.39024282e-05,24.2676654
3.68464612e-05,23.2779916
4.00393537e-05,22.3305731
4.24997615e-05,21.6745532
4.61903732e-05,20.7906307
5.01929529e-05,19.9444482
5.32772968e-05,19.358527
5.63616406e-05,18.8213853
6.09881563e-05,18.0934192
6.48546604e-05,17.545785
6.87211645e-05,17.0450446
7.25876686e-05,16.5848662
7.64541727e-05,16.1600537
8.37246918e-05,15.4424647
9.09952109e-05,14.8126966
9.88803081e-05,14.2098171
0.000107994562,13.5969797
0.000117108815,13.0571562
0.000127763928,12.500842
0.000135380955,12.1440796
0.000146806497,11.6619387
0.000155389328,11.3352942
0.000164937961,11.0022897
0.000174486595,10.6970088
0.000184035228,10.4158066
0.000194794583,10.1240656
0.000206764659,9.82664418
0.000218734735,9.55398394
0.000230704811,9.30282942
0.000244192636,9.04226229
0.000266700997,8.65228988
0.000289209357,8.30877902
0.000315522988,7.95477451
0.000343739255,7.62129564
0.000371955521,7.32652215
0.000395536617,7.10476999
0.000419117712,6.90200644
0.000454489356,6.62798485
0.000481060422,6.44233863
0.000510621459,6.25307776
0.000540182496,6.07957337
0.000569743533,5.91975391
0.000603052769,5.75394485
0.000640110204,5.58490737
0.000677167639,5.42994273
0.000714225074,5.28720071
0.000779208639,5.06193377
0.000848890911,4.8497281
0.000918573183,4.66215218
0.000976808538,4.52104259
0.00106416157,4.33151207
0.0011515146,4.1639795
0.00122451789,4.03794811
0.00129752118,3.92270878
0.00140702611,3.7669704
0.00148928587,3.66145959
0.0015808021,3.55389441
0.00167231832,3.45528433
0.00176383455,3.36445198
0.0018669546,3.27021548
0.00198167847,3.17414413
0.00215376428,3.04469743
0.00234039653,2.92077759
0.00255612166,2.79481092
0.00277184679,2.683852
0.00302404248,2.56950348
0.0032043298,2.49617216
0.00347476077,2.3970697
0.00379091089,2.29493983
0.00401691735,2.22944429
0.00424292381,2.16925415
0.00446893028,2.11368977
0.00475224983,2.04971453
0.00503556938,1.99121748
0.00531888894,1.93745893
0.00560220849,1.88783185
0.00613495853,1.80400228
0.00666770858,1.73043205
0.00724549207,1.66000297
0.00791334246,1.58841059
0.00858119284,1.52534775
0.00936195023,1.46035846
0.00992009083,1.41868104
0.0107573017,1.36235674
0.0113862119,1.32419773
0.0120858916,1.28529573
0.0131354112,1.23287909
0.013835091,1.20129939
0.0147122029,1.16493943
0.0155893147,1.13169295
0.0164664266,1.10113957
0.017893308,1.05632271
0.0195426167,1.01076558
0.0206421557,0.983476949
0.0217416948,0.958285513
0.0235208474,0.921329533
0.0257887955,0.879884689
0.0281191387,0.84263616
0.0298470524,0.817881215
0.0315749661,0.795187179
0.0341668367,0.764430872
0.0363329329,0.741293511
0.0395820772,0.710216684
0.0417481734,0.691546272
0.0441889203,0.672176135
0.0482620167,0.643186201
0.0509774143,0.625821281
0.0536928119,0.609790891
0.0587988067,0.582712498
0.0639048016,0.558948025
0.0694424071,0.53619818
0.0758432337,0.513072544
0.0822440603,0.492702085
0.087052341,0.478901339
0.0924016846,0.46483187
0.1004257,0.445874619
0.109127987,0.427726741
0.115833873,0.415160606
0.122539759,0.403640621
0.129245645,0.393029247
0.136801806,0.382020172
0.145208241,0.370796726
0.157817894,0.355674207
0.166224329,0.346563253
0.176762556,0.336073143
0.192569897,0.321983378
0.208377238,0.309528912
0.22819317,0.295783143
0.241403791,0.287575324
0.261219723,0.276451568
0.277780433,0.268083362
0.302621496,0.256843612
0.32746256,0.246908363
0.348222908,0.239434242
0.368983256,0.232600103
0.389743603,0.226319533
0.410503951,0.220521617
0.436528925,0.213846033
0.475566387,0.204879708
0.501591361,0.199492867
0.530916178,0.193904112
0.579853169,0.185539756
0.628790159,0.178171867
0.686000453,0.170578827
0.726898416,0.165709391
0.788245362,0.159128606
0.859963642,0.152346704
0.911232941,0.147997444
0.988136888,0.142119634
1.04590689,0.13813744
1.11017759,0.134077664
1.1744483,0.13035583
1.238719,0.12692751
1.31113893,0.12337066
1.43199264,0.118047277
1.51256179,0.114858522
1.59313093,0.111914786
1.744632,0.106942149
1.89613307,0.102577956
2.06044055,0.0983999732
2.18705408,0.0955069375
2.37697438,0.0916087411
2.58294867,0.0878768439
2.74167019,0.0852926815
2.90039171,0.082923587
3.13847399,0.0797127319
3.33744578,0.0772971708
3.53641757,0.0750883716
3.73538936,0.0730584184
3.93436115,0.0711844022
4.30850486,0.0680186649
4.557934,0.0661282469
4.80736314,0.0643868519
5.24475971,0.061638511
5.7137827,0.0590493032
6.1828057,0.0567604122
6.57478088,0.0550383865
7.16274365,0.0527252476
7.75070642,0.0506803597
8.24208277,0.0491418762
8.73345913,0.047735004
9.47052366,0.0458334925
10.0242042,0.0445450866
10.6401889,0.0432314517
11.2561736,0.0420270426
11.8721584,0.0409175026
12.9523433,0.0391662195
13.7245359,0.0380429335
14.4967285,0.0370104903
15.7529278,0.0354957814
17.2049477,0.033955669
18.6569676,0.0325986825
20.3544665,0.0311998375
21.5679588,0.0303025212
23.3881971,0.0290895214
24.7555544,0.0282674877
26.2767768,0.027429227
28.5586103,0.0262993633
30.0798326,0.0256184111
31.9868225,0.0248341384
33.8938124,0.0241167744
35.8008022,0.0234572918
38.9030842,0.0224895029
42.4889608,0.021505137
44.8795451,0.020915185
47.2701295,0.020370339
51.7653502,0.0194494308
56.2605709,0.0186405799
61.1357733,0.0178656227
64.8925506,0.01732861
68.6493278,0.016835981
74.2844937,0.0161677977
78.993954,0.0156646841
86.0581444,0.0149882488
90.7676046,0.0145814456
96.074202,0.0141590371
104.929804,0.0135260974
110.833538,0.0131464946
116.737273,0.0127957204
127.838571,0.0122023725
135.239437,0.011847535
142.640302,0.0115202925
155.61839,0.0110030206
169.534872,0.0105147023
183.451354,0.0100821219
195.081733,0.00975605814
206.712113,0.00945738868
224.157682,0.00905288454
237.262738,0.00877821839
251.842472,0.0084976439
266.422205,0.00823989345
281.001938,0.00800198732
297.430312,0.00775463844
315.707327,0.00750188216
343.122849,0.00716029576
372.85581,0.00683209348
407.223648,0.00649714506
441.591486,0.00620088864
481.769562,0.00589427976
510.491691,0.0056969014
553.574886,0.00542915415
585.938845,0.00524706265
621.944634,0.00506081259
657.950423,0.00488949805
693.956212,0.00473119155
734.527363,0.00456642045
779.663877,0.00439786281
824.800392,0.0042428075
869.936906,0.00409951992
949.087868,0.00387246651
1033.96193,0.00365751992
1118.83598,0.00346665891
1189.76752,0.00332254896
1296.16483,0.00312829381
1402.56215,0.00295595738
1491.48125,0.00282595757
1580.40036,0.00270685406
1669.31946,0.00259722946
1758.23856,0.00249591518
1869.70671,0.00237917108
2036.90892,0.00222231159
2204.11114,0.00208374068
2343.84655,0.001979649
2413.71425,0.00193109763
2553.44965,0.00184020904
2623.31735,0.00179760425
2763.05276,0.00171749165
2850.63825,0.00167044971
3025.80922,0.00158290566
3200.9802,0.00150310779
3376.15117,0.00143006938
3573.53299,0.00135485051
3793.12566,0.00127884988
3902.92199,0.0012435466
4122.51466,0.00117773981
4232.31099,0.00114703008
4479.74697,0.00108260924
4617.38661,0.00104938741
4892.66588,0.000987912145
5030.30552,0.000959429686
5305.5848,0.000906479155
5615.76818,0.000852523505
5960.85567,0.000798650938
6305.94316,0.000750371157
6651.03064,0.00070692675
6931.72398,0.000674719143
7256.17277,0.000640588113
7688.77116,0.000599633946
7905.07036,0.000580898221
8337.66875,0.000546516695
8553.96794,0.000530737324
8825.11855,0.000512170033
9096.26917,0.000494863188
9367.41978,0.000478735354
9638.57039,0.000463721534
9909.72101,0.000449776141
10180.8716,0.000436880056
10587.5975,0.00041957519
10907.3796,0.000407988458
11183.6898,0.00040011452
11367.8966,0.000396866322
11460.0,0.000396355592
11532.0,0.00039681863
11604.0,0.000398443851
11640.0,0.00039988494
11694.0,0.000403186188
11748.0,0.000408482251
11784.0,0.000413678415
11820.0,0.000420854086
11848.8,0.000428621347
11877.6,0.000438965689
11895.888,0.000447366111
11910.288,0.000455295443
11930.232,0.000468746491
11939.916,0.000476571716
11949.6,0.000485439739
11957.376,0.000493440417
11969.472,0.000507742249
11975.52,0.000515886706
11987.184,0.000533859635
11996.4,0.000550594171
12003.168,0.000564611863
12008.784,0.000577545135
12018.396,0.000602929348
12025.596,0.000625163388
12032.4,0.000649263068
12037.764,0.000670770314
12042.246,0.000690715265
12047.682,0.000717695979
12050.4,0.000732484796
12053.694,0.000751710074
12057.294,0.000774526364
12062.298,0.000809802139
12064.8,0.000829196103
12068.4,0.000859432019
12071.424,0.000887197344
12074.448,0.000917391326
12077.472,0.000950304766
12080.496,0.000986273323
12084.924,0.00104527942
12087.84,0.00108887882
12091.296,0.00114623513
12095.04,0.0012164549
12097.92,0.00127714628
12099.432,0.00131165066
12102.312,0.00138304233
12105.12,0.00146074138
12106.56,0.00150409319
12108.0,0.00155007535
12110.16,0.00162446121
12111.6,0.0016780191
12113.76,0.00176500691
12115.2,0.00182789858
12117.36,0.00193050074
12119.52,0.00204430112
12121.68,0.00217098934
12123.12,0.00226359002
12125.28,0.00241644793
12127.44,0.00258854868
12128.16,0.00265075371
12129.6,0.00278326116
12131.04,0.00292763788
12132.48,0.00308534429
12133.92,0.00325807248
12135.36,0.00344779183
12136.44,0.00360260273
12138.06,0.00385763559
12139.14,0.0040447734
12140.76,0.0043549911
12141.3,0.00446715612
12142.38,0.00470615323
12142.92,0.00483356037
12144.0,0.00510579316
12144.72,0.00530133827
12145.44,0.0055092341
12146.16,0.0057305428
12146.88,0.00596644322
12147.6,0.00621824659
12148.68,0.00662901394
12149.4,0.0069273532
12150.48,0.00741645943
12151.2,0.00777354334
12152.28,0.00836224252
12153.0,0.00879456085
12153.36,0.00902398224
12154.08,0.00951183313
12154.44,0.00977136202
12155.16,0.0103246773
12155.88,0.0109282747
12156.6,0.0115884352
12156.96,0.011941961
12157.68,0.0127010111
12158.4,0.0135372103
12159.12,0.0144613769
12159.84,0.015486294
12160.38,0.0163301325
12160.74,0.0169325383
12161.1,0.0175696826
12161.46,0.0182442879
12161.82,0.018959349
12162.18,0.0197181659
12162.54,0.020524382
12162.9,0.0213820277
12163.26,0.0222955714
12163.62,0.023269977
12163.98,0.0243107723
12164.34,0.0254241265
12164.7,0.0266169428
12165.24,0.0285723582
12165.6,0.0299998623
12165.96,0.031538492
12166.32,0.0332000846
12166.68,0.0349980962
12167.04,0.0369478747
12167.4,0.0390669879
12167.76,0.0413756205
12168.12,0.0438970556
12168.48,0.0466582638
12168.84,0.0496906258
12169.2,0.0530308276
12169.56,0.0567219729
12169.92,0.0608149792
12170.19,0.0641844258
12170.46,0.0678434656
12170.64,0.0704603683
12170.82,0.073232406
12171.0,0.0761720807
12171.27,0.0809264599
12171.45,0.084348755
12171.63,0.0879936793
12171.81,0.0918809565
12172.08,0.0982149981
12172.26,0.102809872
12172.53,0.110333069
12172.71,0.115818086
12172.98,0.124847477
12173.16,0.131467998
12173.25,0.134977886
12173.43,0.142433618
12173.61,0.150525617
12173.7,0.154833061
12173.88,0.164022432
12174.06,0.174055758
12174.15,0.179421533
12174.33,0.190925675
12174.42,0.197097399
12174.6,0.21037402
12174.69,0.217521249
12174.87,0.232953357
12174.996,0.244754097
12175.104,0.2555974
12175.266,0.273264331
12175.392,0.288302279
12175.536,0.307058362
12175.68,0.327703962
12175.824,0.350500997
12175.968,0.375758257
12176.112,0.403841817
12176.184,0.419076698
12176.292,0.443593846
12176.364,0.461150592
12176.436,0.479767798
12176.508,0.499532305
12176.616,0.531542732
12176.688,0.55461759
12176.796,0.59214181
12176.868,0.619305797
12176.976,0.663679692
12177.048,0.695953421
12177.156,0.748940742
12177.228,0.787682058
12177.264,0.808183666
12177.336,0.851648802
12177.372,0.874700337
12177.444,0.923683966
12177.48,0.949723202
12177.552,1.00519302
12177.588,1.03475505
12177.66,1.09789861
12177.696,1.13164275
12177.768,1.2039296
12177.804,1.24267528
12177.876,1.32594037
12177.912,1.3707156
12177.984,1.46727257
12178.056,1.57428138
12178.11,1.66231556
12178.164,1.75784783
12178.2,1.82612315
12178.236,1.89839837
12178.29,2.01500571
12178.326,2.0987219
12178.362,2.18767929
12178.398,2.2823167
12178.434,2.3831189
12178.47,2.4906224
12178.506,2.60542204
12178.542,2.72817854
12178.578,2.85962728
12178.614,3.00058826
12178.65,3.15197776
12178.686,3.31482173
12178.722,3.49027132
12178.758,3.67962098
12178.776,3.77995714
12178.812,3.99295003
12178.848,4.22385269
12178.866,4.34663071
12178.902,4.6082043
12178.938,4.89317103
12178.956,5.04526905
12178.992,5.37058538
12179.028,5.72689826
12179.046,5.91785602
12179.082,6.32802964
12179.1,6.54842371
12179.136,7.02309891
12179.154,7.27883423
12179.19,7.83114419
12179.217,8.28468393
12179.244,8.77570042
12179.271,9.30801228
12179.289,9.68790409
12179.307,10.0893928
12179.334,10.7353507
12179.352,11.1974594
12179.37,11.6867392
12179.397,12.4756446
12179.415,13.0411138
12179.433,13.640653
12179.46,14.6087117
12179.478,15.3033171
12179.496,16.04013
12179.514,16.8216277
12179.532,17.6503048
12179.55,18.5286294
12179.568,19.458985
12179.586,20.4435961
12179.613,22.026456
12179.64,23.7406739
12179.6688,25.7159871
12179.6976,27.8392892
12179.7264,30.0985169
12179.7552,32.4700311
12179.8344,39.1929863
12179.8632,41.4950022
12179.8848,43.0762984
12179.8992,44.0352006
12179.9136,44.90145
12179.928,45.6614876
12179.9424,46.3027276
12179.9568,46.8140394
12179.9712,47.1862057
12179.9856,47.4123239
12180.0,47.4881199
12180.0144,47.4121474
12180.0288,47.1858566
12180.0432,46.8135252
12180.0576,46.3020592
12180.072,45.6606788
12180.0864,44.9005166
12180.1008,44.03416
12180.1152,43.0751691
12180.1368,41.4937744
12180.1656,39.191689
12180.2448,32.4688235
12180.2736,30.0974052
12180.3024,27.8382884
12180.3312,25.7151036
12180.36,23.7399077
12180.387,22.0257961
12180.414,20.4430365
12180.432,19.4584882
12180.45,18.528192
12180.468,17.6499232
12180.486,16.8212983
12180.504,16.0398493
12180.522,15.3030818
12180.54,14.6085184
12180.567,13.6405169
12180.585,13.0410121
12180.603,12.4755747
12180.63,11.6867122
12180.648,11.1974581
12180.666,10.7353731
12180.693,10.0894469
12180.711,9.68797709
12180.729,9.30810258
12180.756,8.7758139
12180.783,8.28481761
12180.81,7.83129543
12180.846,7.27900531
12180.864,7.02327855
12180.9,6.54861814
12180.918,6.32823042
12180.954,5.91806766
12180.972,5.72711452
12181.008,5.37080946
12181.044,5.04549929
12181.062,4.89340381
12181.098,4.60844124
12181.134,4.34687072
12181.152,4.22409388
12181.188,3.99319298
12181.224,3.78020112
12181.242,3.67986525
12181.278,3.49051575
12181.314,3.31506586
12181.35,3.1522212
12181.386,3.00083067
12181.422,2.85986839
12181.458,2.72841812
12181.494,2.60565989
12181.53,2.49085837
12181.566,2.38335286
12181.602,2.28254853
12181.638,2.18790892
12181.674,2.09894926
12181.71,2.01523074
12181.764,1.89861985
12181.8,1.82634224
12181.836,1.75806451
12181.89,1.66252863
12181.944,1.57449084
12182.016,1.46747728
12182.088,1.37091563
12182.124,1.3261381
12182.196,1.24286848
12182.232,1.20412059
12182.304,1.13182939
12182.34,1.09808313
12182.43,1.01999386
12182.52,0.949897606
12182.592,0.898865384
12182.628,0.874869063
12182.7,0.829656821
12182.736,0.808347004
12182.808,0.768106827
12182.916,0.713131156
12182.988,0.679682311
12183.096,0.633738632
12183.168,0.605640644
12183.276,0.566860922
12183.348,0.543034539
12183.456,0.5100082
12183.528,0.489632268
12183.6,0.470450456
12183.672,0.452371537
12183.744,0.435312804
12183.816,0.419199139
12183.888,0.403962193
12183.96,0.38953967
12184.104,0.362915258
12184.248,0.338926423
12184.392,0.317237173
12184.536,0.297563291
12184.68,0.279663068
12184.788,0.26727644
12184.896,0.255694536
12185.004,0.244849244
12185.13,0.233046279
12185.22,0.225130415
12185.4,0.210462498
12185.49,0.203660498
12185.67,0.191010101
12185.76,0.185122648
12185.94,0.174136476
12186.12,0.164100849
12186.21,0.159405623
12186.39,0.150600811
12186.57,0.142506802
12186.75,0.135049163
12186.93,0.128162946
12187.02,0.124916066
12187.2,0.118782539
12187.38,0.113090867
12187.56,0.107799638
12187.74,0.102872174
12187.92,0.0982758996
12188.1,0.0939818043
12188.28,0.0899639838
12188.46,0.0861992496
12188.64,0.0826667946
12188.91,0.0777632117
12189.09,0.0747335644
12189.27,0.0718783173
12189.45,0.069184343
12189.63,0.0666397257
12189.9,0.063079408
12190.26,0.0587617464
12190.62,0.0548749815
12190.8,0.0530754933
12191.16,0.0497338355
12191.34,0.0481809092
12191.7,0.0452870288
12191.88,0.0439376109
12192.24,0.0414149626
12192.42,0.0402349992
12192.78,0.0380227166
12192.96,0.0369849874
12193.32,0.0350341823
12193.68,0.0332351967
12193.86,0.0323877613
12194.22,0.0307883227
12194.76,0.0286048257
12195.12,0.0272772006
12195.66,0.0254546613
12196.02,0.024340593
12196.56,0.0228036413
12196.92,0.0218596791
12197.46,0.0205516324
12197.82,0.0197448367
12198.18,0.0189854623
12198.54,0.0182698645
12199.08,0.0172714123
12199.44,0.0166514724
12200.16,0.0155096846
12200.88,0.0144839008
12201.6,0.0135589229
12202.32,0.0127219624
12203.04,0.0119621964
12203.76,0.0112704155
12204.3,0.0107914136
12204.84,0.0103432959
12205.56,0.00978939426
12206.28,0.00928037223
12207.0,0.00881150888
12208.08,0.00817465009
12209.16,0.00760720525
12210.24,0.00709944069
12211.32,0.00664327091
12212.4,0.00623193472
12213.48,0.00585974322
12214.56,0.00552188203
12215.64,0.00521425478
12216.54,0.00497845136
12217.62,0.0047175129
12218.7,0.00447810456
12219.78,0.00425792088
12220.86,0.00405495692
12222.48,0.00377902956
12224.1,0.003532934
12225.36,0.00335946728
12226.08,0.00326666615
12227.52,0.00309355184
12228.24,0.00301274673
12229.68,0.00286154292
12231.12,0.00272292869
12231.84,0.00265791025
12233.28,0.00253568693
12235.44,0.00236988773
12236.88,0.00226968526
12238.32,0.00217680794
12239.76,0.00209055846
12241.92,0.00197228283
12243.36,0.00190005744
12244.8,0.00183258927
12246.24,0.00176946928
12247.68,0.00171033148
12249.12,0.0016548476
12252.0,0.00155369023
12254.88,0.00146396668
12257.688,0.0013859065
12260.568,0.00131416158
12263.52,0.00124817956
12266.832,0.00118200202
12269.712,0.00113030376
12272.16,0.00109011062
12275.076,0.00104621887
12278.028,0.00100570719
12281.016,0.00096825733
12284.04,0.000933586427
12287.064,0.000901804701
12290.088,0.000872599231
12292.5,0.000850968481
12297.702,0.000808748614
12302.706,0.000773081621
12308.502,0.000736847103
12315.036,0.000701441298
12320.472,0.000675655764
12324.0,0.000660453126
12331.2,0.000632646939
12337.608,0.000611018039
12345.6,0.000587459326
12351.216,0.000572826903
12358.416,0.000556034861
12367.2,0.000538091721
12372.816,0.000527870147
12384.48,0.000509239832
12390.528,0.000500761107
12402.624,0.000485802547
12410.4,0.000477387131
12420.084,0.000468009827
12434.484,0.000455960276
12449.712,0.000445217313
12468.0,0.000434448944
12494.424,0.000421997801
12511.2,0.000415544594
12532.8,0.000408504572
12558.0,0.000401707472
12576.0,0.000397590302
12612.0,0.000390771242
12666.0,0.000383098641
12702.0,0.000379177285
12756.0,0.000374539706
12828.0,0.000369992145
12900.0,0.00036673251
12967.8084,0.000364508212
13035.6169,0.000362920757
13171.2337,0.000361279945
13306.8506,0.000361433405
13374.659,0.000362178816
13467.784,0.000363993801
13543.7337,0.000366234511
13672.2,0.000371902922
13751.832,0.000376884815
13838.1,0.000383910141
13899.483,0.00039018693
13976.35,0.000399933366
14031.097,0.000408456646
14093.7242,0.000420232424
14148.333,0.000432688961
14205.9833,0.000448630749
14252.85,0.000464235304
14299.302,0.0004826345
14322.528,0.000493147981
14345.754,0.000504680863
14379.7635,0.000523681351
14402.16,0.00053777361
14420.962,0.000550715359
14443.082,0.000567405719
14457.46,0.000579200483
14491.193,0.000610248655
14513.313,0.000633588166
14534.88,0.000659031772
14557.0,0.000688328965
14579.12,0.00072141322
14601.24,0.000758955679
14612.3,0.000779649916
14634.42,0.000825490875
14651.01,0.000864340302
14667.6,0.000907669692
14684.19,0.000956189431
14700.78,0.00101075664
14711.84,0.00105099995
14722.9,0.00109475337
14739.49,0.0011678974
14750.55,0.0012224004
14761.61,0.00128218659
