energy [eV],cross section [b]
1e-05,502.696121
1.09473267e-05,480.453646
1.15788778e-05,467.167149
1.2210429e-05,454.925279
1.33172984e-05,435.609621
1.45039392e-05,417.409704
1.569058e-05,401.315586
1.71769905e-05,383.55883
1.81679309e-05,372.951868
1.96543414e-05,358.571915
2.08956135e-05,347.758659
2.27575218e-05,333.229184
2.39987939e-05,324.497087
2.53968514e-05,315.439132
2.77291158e-05,301.882192
2.92839586e-05,293.758614
3.08388015e-05,286.257421
3.37602435e-05,273.591569
3.57078715e-05,266.025648
3.76554995e-05,259.054584
4.10689522e-05,248.055392
4.47284102e-05,237.691552
4.83878682e-05,228.526847
5.14438095e-05,221.635287
5.44997507e-05,215.331816
5.90836627e-05,206.810102
6.44395679e-05,198.029156
6.82675024e-05,192.397061
7.2095437e-05,187.2197
7.59233715e-05,182.439001
8.31157952e-05,174.366734
8.79107443e-05,169.544783
9.27056934e-05,165.101948
0.000101109419,158.091886
0.000110118796,151.486749
0.000119128173,145.645851
0.000130413503,139.201547
0.000137937056,135.352055
0.000149222386,130.133263
0.000158646543,126.208903
0.000172782778,120.935846
0.000182206935,117.766782
0.000192821459,114.479457
0.00020462635,111.128242
0.000216431241,108.05509
0.000228236133,105.223559
0.000241532103,102.286363
0.000263712675,97.8902932
0.000278499724,95.2560841
0.000293286772,92.823694
0.000321070611,88.7165745
0.00034885445,85.1104457
0.000378977878,81.6578652
0.000402179614,79.2674503
0.000436982219,76.0454052
0.00047471544,72.9605541
0.00050377841,70.8247387
0.00053284138,68.8661397
0.00056190435,67.0615318
0.00059463827,65.1895807
0.00063104314,63.2812478
0.00066744801,61.5312561
0.00070385288,59.9188541
0.000744856058,58.2462815
0.000790457543,56.541202
0.000858859771,54.2429217
0.000933021932,52.0425015
0.00101870396,49.8058044
0.00110438599,47.8347358
0.00120449804,45.8037061
0.00127604942,44.5010042
0.00138337648,42.7398701
0.00150877888,40.9251612
0.0015984056,39.7612073
0.00168803231,38.6912305
0.00177765903,37.7032293
0.00188992729,36.5662193
0.00200219554,35.5262353
0.0021144638,34.5702191
0.00222673206,33.6874475
0.00243767633,32.1968764
0.0026486206,30.8881258
0.00287732782,29.6351008
0.00314156093,28.3614172
0.00340579404,27.2389946
0.00371452761,26.0824265
0.00393518347,25.3406035
0.00426616727,24.3377259
0.00451469423,23.6583461
0.00479109228,22.9657619
0.00520568935,22.0322252
0.0054820874,21.4696064
0.00582830925,20.8221338
0.0061745311,20.2299123
0.00652075295,19.6855061
0.00708381708,18.8869104
0.00773434394,18.0751473
0.00838487079,17.3597872
0.00914495524,16.6226638
0.00995981848,15.9281173
0.0107746817,15.3139307
0.011455158,14.8520811
0.0121356342,14.4296423
0.0131563486,13.8585421
0.0143489651,13.2700667
0.0152013436,12.8926174
0.0160537221,12.5456423
0.0169061005,12.2252496
0.0185076606,11.6842605
0.0195753673,11.3611002
0.0206430739,11.0633467
0.0222076955,10.6664414
0.0242692318,10.2032872
0.0265266522,9.75940697
0.0290395928,9.32750569
0.0307148865,9.06950842
0.0332278271,8.71973665
0.0353263343,8.45671752
0.0384740951,8.1033027
0.0416218558,7.7907758
0.0442504888,7.55576336
0.0468791219,7.34080364
0.0495077549,7.1431979
0.0521363879,6.96072997
0.0554290673,6.75074038
0.0603680865,6.46857908
0.063660766,6.29899994
0.0673693446,6.12309039
0.0735560611,5.85980397
0.0797427775,5.62778023
0.0869714214,5.38869263
0.0921378265,5.23533857
0.099887434,5.02801325
0.108942181,4.81437474
0.115413726,4.67734331
0.125121043,4.49208413
0.13241001,4.36658028
0.140516399,4.23863378
0.148622788,4.12130012
0.156729177,4.01318851
0.165859486,3.90103908
0.18109083,3.73317912
0.191245058,3.63258968
0.201399287,3.53970355
0.220478379,3.38285625
0.239557472,3.2451321
0.260243153,3.11326302
0.276175727,3.02195676
0.300074588,2.89887632
0.325985896,2.78102634
0.345943364,2.69942559
0.365900833,2.62459031
0.395837035,2.52312664
0.420836167,2.44682188
0.4458353,2.37702245
0.470834433,2.312853
0.495833565,2.25359468
0.542805203,2.15352384
0.574119628,2.09373849
0.605434052,2.03864763
0.660316354,1.95171034
0.719153988,1.86977863
0.777991621,1.79731187
0.82712577,1.74280895
0.900826993,1.66955936
0.974528216,1.60476844
1.03607466,1.55603632
1.0976211,1.51145326
1.18994076,1.45116513
1.25926114,1.41031271
1.33635547,1.36865584
1.4134498,1.33044527
1.49054413,1.29522962
1.62566122,1.23964511
1.72223116,1.20397902
1.81880109,1.17118181
1.97585376,1.1230507
2.15730197,1.07409809
2.33875018,1.0309326
2.55075675,0.986424646
2.70228057,0.957859763
2.92956631,0.919218412
3.10022915,0.893024207
3.29003099,0.866305008
3.57473376,0.830262182
3.7645356,0.808523094
4.00228527,0.783487963
4.24003494,0.760571516
4.47778461,0.739489156
4.86443934,0.708532491
5.31115449,0.677023784
5.60896459,0.65812078
5.90677469,0.640649715
6.46633922,0.611110674
7.02590376,0.585130093
7.63258744,0.560211669
8.09986876,0.542931251
8.56715008,0.527062632
9.26807206,0.505512705
9.8533982,0.489277508
10.4387243,0.474402846
11.0240505,0.460706535
11.6093766,0.448038898
12.7091639,0.426600464
13.4423554,0.41376234
14.1755468,0.401910623
15.4605533,0.383162017
16.8381692,0.365436853
18.2157852,0.349709417
19.9414152,0.332293407
21.0918352,0.321855242
22.8174651,0.307659097
24.2585047,0.296947492
26.4200641,0.282501274
27.8611037,0.27378783
29.4494581,0.264909003
31.1851272,0.25596591
32.9207963,0.247714439
34.6564654,0.240068388
36.9324635,0.230841057
40.3240755,0.218515967
43.7156876,0.207602332
47.6784933,0.196303403
51.9268959,0.185606272
56.1752985,0.176105196
59.7230559,0.168935044
65.0446919,0.159266809
68.5924492,0.153438303
72.3266494,0.147760653
76.2472924,0.142243602
80.1679355,0.137127924
84.0885785,0.132367942
88.1423014,0.127779387
90.9256199,0.124806089
96.492257,0.119247244
104.842212,0.111752421
113.895291,0.104581345
120.868175,0.099623765
131.3275,0.0929582453
139.09973,0.0885156073
147.63427,0.0840643347
156.168809,0.0800020348
164.703349,0.0762792402
173.237888,0.0728548378
183.633047,0.0690373796
190.836003,0.0665942636
198.311808,0.0642152947
205.787614,0.0619817408
213.263419,0.0598809386
222.156666,0.0575392855
237.6227,0.053828767
246.172099,0.0519526782
254.721497,0.0501877895
271.820294,0.0469559827
288.1473,0.0441946733
300.77845,0.0422473777
319.725175,0.0395954164
332.356325,0.0379860154
346.576265,0.0363084321
358.753475,0.0349740585
377.01929,0.0331308073
389.1965,0.0319972505
407.849153,0.0303928149
417.17548,0.0296452937
433.111453,0.0284446905
452.35225,0.0271125893
477.61455,0.0255363514
501.245496,0.0242174926
523.245089,0.0231082014
534.244885,0.0225922916
553.40145,0.0217502104
566.0326,0.0212315044
591.2949,0.0202736746
616.5572,0.0194123393
648.666142,0.0184414087
680.775085,0.0175937715
704.97525,0.0170282083
730.23755,0.0164994175
761.815425,0.0159205222
799.708875,0.0153379126
818.6556,0.0150901537
847.40513,0.0147679051
875.495775,0.0145148598
894.4425,0.01437883
919.7048,0.0142417862
944.9671,0.0141572995
970.2294,0.0141285422
995.4917,0.0141600985
1020.754,0.0142583094
1046.0163,0.0144317565
1071.2786,0.0146919515
1096.5409,0.0150543225
1109.17205,0.0152800579
1121.8032,0.015539654
1134.43435,0.0158368948
1153.38107,0.0163632668
1172.3278,0.0170030311
1191.27452,0.017780146
1203.90567,0.0183896465
1210.22125,0.0187260065
1222.8524,0.0194703958
1229.16797,0.0198823512
1241.79913,0.02079726
1248.1147,0.0213055959
1260.74585,0.0224399252
1270.21921,0.0234086884
1276.53479,0.0241191665
1282.85036,0.0248875508
1289.16594,0.0257199568
1295.48151,0.0266233451
1301.79709,0.0276056648
1308.11266,0.0286760273
1315.28046,0.0300108286
1323.9016,0.0318100043
1330.21717,0.0332825522
1336.53275,0.0349053845
1342.84832,0.0366993094
1349.1639,0.0386888939
1352.32169,0.0397659674
1358.63726,0.0421054652
1364.95284,0.0447246245
1368.11063,0.0461531203
1372.84731,0.0484629782
1376.00509,0.0501252646
1379.16288,0.0518953009
1382.32067,0.0537825741
1385.47846,0.0557976419
1388.63624,0.0579522816
1391.79403,0.0602596625
1394.95182,0.0627345486
1399.6885,0.0667978231
1402.84629,0.0697687887
1406.00408,0.0729753254
1409.16186,0.0764430071
1413.89854,0.0821990598
1417.05633,0.0864564781
1418.63522,0.0887260655
1421.79301,0.0935755384
1424.9508,0.0988820246
1426.52969,0.101724815
1429.68748,0.107831055
1432.84527,0.114561851
1434.42416,0.11818843
1437.58195,0.126026352
1440.10818,0.13292156
1442.00285,0.138501397
1443.89753,0.144467215
1446.42376,0.153085653
1447.68687,0.157706941
1450.2131,0.167643006
1452.73933,0.178610144
1455.26556,0.190756012
1457.79179,0.204255627
1459.68646,0.215392784
1461.58113,0.227510935
1462.84425,0.236192496
1464.10737,0.245401857
1465.37048,0.255182603
1466.6336,0.265582896
1467.89671,0.276656063
1469.15982,0.288461277
1470.42294,0.301064334
1471.68606,0.314538563
1472.94917,0.328965877
1474.21229,0.344438005
1475.4754,0.361057928
1476.73852,0.378941567
1478.00163,0.398219774
1478.63319,0.408427385
1479.8963,0.430081352
1481.15942,0.453538891
1482.42253,0.479004786
1483.68565,0.506713506
1484.31721,0.521491593
1485.58032,0.553082381
1486.84343,0.587669488
1487.47499,0.606205521
1488.73811,0.646034069
1490.00122,0.689953114
1490.63278,0.713622115
1491.8959,0.764784192
1492.52745,0.792460979
1493.47479,0.836886648
1494.42213,0.885158737
1495.36946,0.937728004
1496.3168,0.995112098
1497.26413,1.0579076
1498.21147,1.12680458
1499.15881,1.20260438
1500.10614,1.28624128
1501.05348,1.37880908
1502.00082,1.48159402
1502.63237,1.55653272
1503.26393,1.6371996
1503.57971,1.67986011
1504.21127,1.77023216
1504.84282,1.86792667
1505.47438,1.97372874
1506.10594,2.08852704
1506.7375,2.2133297
1507.36905,2.34928298
1508.00061,2.49769304
1508.63217,2.66005148
1509.26373,2.83806515
1509.89528,3.03369096
1510.21106,3.1387982
1510.68473,3.3064457
1511.31629,3.55043562
1511.63207,3.68205785
1512.10574,3.89271877
1512.42151,4.04265957
1512.89518,4.28309784
1513.21096,4.45455434
1513.68463,4.73000582
1514.00041,4.92678391
1514.47408,5.24346766
1514.78985,5.47007428
1515.26352,5.83532372
1515.73719,6.23373211
1516.21086,6.66863569
1516.68453,7.14361851
1517.15819,7.66247566
1517.63186,8.22914496
1517.94764,8.6354496
1518.26342,9.06591927
1518.73709,9.75929234
1519.05287,10.2547139
1519.36865,10.7775684
1519.93705,11.7892074
1520.31598,12.5139194
1520.69492,13.2774915
1520.94754,13.8068583
1521.45279,14.9086267
1523.22115,18.9442804
1523.72639,20.0098238
1524.10533,20.7303002
1524.35795,21.1606436
1524.61057,21.5433286
1524.8632,21.8721558
1525.11582,22.1415158
1525.49475,22.4238401
1525.74738,22.525831
1525.98737,22.5565698
1526.37893,22.4673384
1526.63156,22.3196732
1526.88418,22.104385
1527.1368,21.8253911
1527.38943,21.4876044
1527.64205,21.0967267
1527.89467,20.6590227
1528.27361,19.9291409
1528.77885,18.8541166
1530.29459,15.3765633
1531.05246,13.7076452
1531.55771,12.6674986
1531.81033,12.1727374
1532.18926,11.4638638
1532.47346,10.9588173
1532.78924,10.4243925
1533.26291,9.67462093
1533.73658,8.9848673
1534.21025,8.35184915
1534.68392,7.77179611
1534.99969,7.41255912
1535.47336,6.9119429
1535.78914,6.60199994
1536.26281,6.16999504
1536.57859,5.90238239
1536.89437,5.64990779
1537.21015,5.41162304
1537.52592,5.18663281
1537.8417,4.97409428
1538.15748,4.77321606
1538.47326,4.58325654
1538.78904,4.40352191
1539.10482,4.23336385
1539.4206,4.07217722
1539.73638,3.91939755
1540.21004,3.70484997
1540.8416,3.44359408
1541.47316,3.20759207
1542.10472,2.9938842
1542.73627,2.79990043
1543.36783,2.62340665
1543.99939,2.46245793
1544.31517,2.38727417
1544.94673,2.24653078
1545.2625,2.18062496
1545.89406,2.05696087
1546.20984,1.99891826
1546.8414,1.8897662
1547.15718,1.83842203
1547.78873,1.74166311
1548.10451,1.69605362
1549.05185,1.56925384
1549.68341,1.49230048
1550.63074,1.38687633
1551.2623,1.3225754
1552.20964,1.23407026
1552.84119,1.17984254
1553.78853,1.10488199
1554.42009,1.05876207
1555.36742,0.994759105
1555.99898,0.955231164
1556.94632,0.900179205
1557.57787,0.866060905
1558.20943,0.833833714
1558.84099,0.803362266
1560.1041,0.747202654
1561.36722,0.696713576
1562.63034,0.651164572
1563.89345,0.609937977
1565.15657,0.572508843
1566.41968,0.538428882
1567.68279,0.507313518
1568.63013,0.485721441
1569.57747,0.465486714
1570.84058,0.440429066
1572.1037,0.417356922
1573.36681,0.396067417
1575.26148,0.367092717
1577.15616,0.341221555
1579.05083,0.318028679
1580.9455,0.297158915
1582.84018,0.278313811
1584.73485,0.261241149
1585.99796,0.25073689
1587.89263,0.236157794
1589.78731,0.222846614
1591.68198,0.210661261
1592.9451,0.203101815
1595.47132,0.189193104
1596.73444,0.182787591
1599.26067,0.170951304
1601.7869,0.160273961
1603.05002,0.155323452
1605.57624,0.146118447
1608.10247,0.137748432
1610.94448,0.129209498
1613.78649,0.121486356
1615.99694,0.115978888
1619.15473,0.108781942
1622.31252,0.102283089
1625.47031,0.0963955768
1627.0492,0.0936575979
1630.20699,0.0885523505
1631.78588,0.0861705432
1634.94367,0.0817160989
1636.52256,0.0796318471
1639.68035,0.0757232246
1641.25924,0.073889486
1644.41703,0.0704420424
1646.77156,0.0680477304
1651.12042,0.0639802954
1655.46929,0.0603219567
1660.20597,0.0567420051
1664.94265,0.0535291726
1669.67933,0.0506360731
1674.41601,0.0480227538
1679.15269,0.0456553421
1682.31048,0.0441992486
1687.04716,0.0421796107
1690.20495,0.0409332075
1696.52052,0.0386544341
1699.67831,0.0376119311
1705.99389,0.0356986584
1709.15168,0.0348202063
1715.46725,0.0332028472
1721.78283,0.0317522585
1724.94061,0.0310831278
1731.25619,0.0298461549
1737.57176,0.0287314363
1747.04513,0.0272597876
1753.3607,0.0263961197
1762.83406,0.0252536728
1772.30742,0.0242721362
1781.78079,0.0234303653
1788.09636,0.0229381914
1797.56972,0.0222926764
1803.8853,0.0219188535
1816.51645,0.0212931998
1822.83203,0.0210363277
1835.46317,0.0206242351
1841.77875,0.0204657146
1854.4099,0.020237181
1867.04105,0.0201202336
1879.6722,0.020109574
1892.30335,0.0202023818
1904.9345,0.0203981245
1917.57298,0.0206986823
1928.26107,0.0210374213
1944.29319,0.021699521
1954.98128,0.0222513439
1965.66936,0.0228996742
1971.01341,0.0232627484
1981.70149,0.0240732292
1992.38958,0.0250065045
2003.07766,0.0260773433
2013.76575,0.0273037026
2019.10979,0.0279818565
2029.79787,0.0294839405
2040.48596,0.0312055944
2045.83,0.0321597931
2053.84607,0.0337225248
2059.19011,0.0348608161
2063.75132,0.035899458
2070.35049,0.03752188
2075.22224,0.0388189971
2080.56628,0.0403488204
2085.91032,0.0420013635
2091.25436,0.0437892073
2096.59841,0.0457266301
2101.94245,0.0478298868
2107.28649,0.0501175444
2112.63053,0.0526108857
2115.30256,0.0539421992
2120.6466,0.0567911391
2125.99064,0.0599143224
2131.33468,0.0633471449
2136.67873,0.0671309453
2139.35075,0.0691693036
2144.69479,0.0735731956
2148.43562,0.0769428482
2151.64204,0.0800403633
2154.84847,0.0833493686
2158.0549,0.0868893297
2160.19251,0.0893882545
2164.46775,0.0947517911
2166.60536,0.0976323239
2170.8806,0.103835773
2173.01821,0.107178943
2177.29345,0.11440557
2181.56868,0.122441497
2184.77511,0.129073638
2187.98153,0.136292124
2191.18796,0.144167729
2194.39438,0.152782218
2196.532,0.158981929
2198.66962,0.16558372
2201.87604,0.176318684
2204.01366,0.184089097
2206.15128,0.192403805
2208.28889,0.201314565
2210.42651,0.210879407
2212.56413,0.221163563
2214.70175,0.232240568
2216.83936,0.244193541
2218.97698,0.257116725
2221.1146,0.271117303
2223.25221,0.286317579
2225.38983,0.302857586
2227.52745,0.320898236
2229.66506,0.340625139
2231.80268,0.362253247
2233.9403,0.386032536
2235.00911,0.39881826
2237.14672,0.426387279
2239.28434,0.456935809
2240.35315,0.473461782
2241.95636,0.499989045
2243.02517,0.51893429
2244.62838,0.549437551
2246.2316,0.582708501
2247.83481,0.619086808
2248.90362,0.645256651
2250.50683,0.687716396
2252.11004,0.734475067
2253.71326,0.786120412
2255.31647,0.84334154
2256.91968,0.906949968
2258.52289,0.977905754
2259.0573,1.00338172
2260.12611,1.05735006
2260.66051,1.08594611
2261.72932,1.14664592
2262.79813,1.21244448
2263.86694,1.28390685
2264.40134,1.3219592
2265.47015,1.40314776
2266.53896,1.49177516
2267.60777,1.5887321
2268.67657,1.69503779
2269.74538,1.81186079
2270.81419,1.94054318
2271.883,2.08262853
2272.95181,2.23989412
2273.48621,2.32484768
2274.28782,2.46097143
2274.82222,2.55796872
2275.35663,2.66035623
2275.89103,2.76849688
2276.69264,2.94235278
2277.22704,3.06663683
2278.02865,3.26678103
2278.56305,3.41008062
2279.36466,3.64117474
2279.89906,3.80683891
2280.70067,4.07426897
2281.50228,4.36637152
2282.30388,4.68544558
2283.10549,5.03385591
2283.63989,5.28359257
2284.1743,5.54808582
2284.9759,5.97383963
2285.51031,6.27778324
2286.04471,6.59826842
2286.52568,6.90101899
2287.16696,7.32574702
2288.02201,7.92844566
2288.44953,8.244461
2289.30458,8.90214434
2292.29724,11.310533
2293.15229,11.9461535
2293.79357,12.3758123
2294.2211,12.6323786
2294.64862,12.8604649
2295.07614,13.0563733
2295.50367,13.2167597
2295.93119,13.338767
2296.35871,13.4201471
2297.0,13.4628878
2297.64129,13.4090781
2298.06881,13.3205124
2298.49633,13.1916009
2298.92386,13.0246876
2299.35138,12.8227097
2299.7789,12.589074
2300.20643,12.3275225
2300.84771,11.891495
2301.70276,11.2494575
2304.2679,9.17336055
2305.55047,8.17728404
2306.61928,7.40761228
2307.26056,6.97660332
2307.68808,6.70265157
2308.22249,6.37537125
2308.75689,6.06480526
2309.5585,5.62955666
2310.0929,5.35907664
2310.62731,5.10365175
2311.42891,4.74728808
2312.23052,4.42095656
2313.03213,4.12227186
2313.83373,3.8488993
2314.36814,3.67960724
2315.16974,3.4435367
2315.70415,3.29720869
2316.23855,3.15907618
2316.77296,3.02862059
2317.57456,2.84627335
2318.10897,2.73294316
2318.64337,2.6257135
2319.17778,2.52419756
2319.97938,2.38185363
2320.51379,2.29309491
2321.5826,2.12895406
2322.6514,1.98086141
2323.72021,1.84692135
2324.78902,1.72548853
2325.59063,1.64175466
2326.65944,1.53888285
2327.72824,1.44501915
2328.79705,1.35918531
2329.59866,1.29956095
2330.66747,1.22578588
2331.20187,1.19115907
2332.27068,1.12604167
2332.80508,1.09541104
2333.87389,1.03768715
2334.4083,1.01047772
2336.01151,0.934832268
2337.61472,0.867200769
2339.21794,0.806515032
2340.82115,0.751875055
2342.42436,0.702518982
2344.02757,0.657798982
2345.09638,0.630284626
2346.6996,0.592101357
2347.7684,0.568519406
2349.37162,0.535675771
2350.44042,0.515320865
2352.04364,0.48687818
2353.11245,0.469194331
2355.25006,0.436579459
2356.85328,0.414286013
2357.92208,0.400354008
2360.0597,0.374509305
2362.19732,0.351080078
2364.33494,0.329777104
2366.47255,0.310352828
2368.61017,0.292594414
2370.74779,0.276318114
2372.8854,0.261364652
2375.02302,0.247595445
2376.09183,0.241116507
2378.22945,0.22890155
2380.36706,0.217595705
2383.57349,0.202152946
2385.71111,0.192759034
2387.84872,0.184009713
2391.05515,0.171970591
2394.26157,0.161085995
2397.468,0.151213517
2400.67442,0.142231965
2403.88085,0.134037685
2407.08728,0.126541621
2410.2937,0.119666916
2414.56894,0.111353366
2416.70655,0.107523847
2420.98179,0.100445995
2423.1194,0.0971719632
2427.39464,0.091097133
2431.66987,0.0855880757
2433.80749,0.0830240585
2435.9451,0.080576805
2439.15153,0.0771097528
2444.49557,0.0718234498
2449.30521,0.0675315624
2454.64925,0.0632140137
2459.9933,0.0593125063
2465.33734,0.0557753035
2470.68138,0.0525584532
2476.02542,0.0496244251
2478.69744,0.0482532239
2484.04149,0.0456844735
2489.38553,0.0433261555
2494.72957,0.0411558885
2497.40159,0.0401350839
2505.41766,0.037304015
2513.43372,0.0347807095
2521.44978,0.0325220595
2529.46585,0.0304922399
2537.48191,0.028661282
2545.49798,0.0270039626
2553.51404,0.0254989307
2561.5301,0.0241280161
2569.54617,0.0228756781
2574.89021,0.0220999885
2585.09711,0.020735921
2590.92234,0.0200199228
2601.61042,0.0188107132
2612.29851,0.0177214582
2617.64255,0.0172168784
2628.33063,0.0162793173
2636.3467,0.0156329495
2644.36276,0.0150303375
2655.05085,0.0142882362
2665.73893,0.0136089345
2676.42702,0.0129854589
2692.45914,0.0121419469
2703.14723,0.0116333535
2713.83532,0.0111626899
2724.5234,0.0107262152
2740.55553,0.0101285179
2751.24361,0.00976395408
2761.9317,0.00942364422
2772.61978,0.00910543808
2788.65191,0.00866543792
2799.34,0.00839454637
2820.71616,0.00790015997
2842.09234,0.00746089324
2863.4685,0.00706862675
2884.84468,0.00671669049
2906.22084,0.00639956389
