energy [eV],cross section [b]
1e-05,1144.89391
1.06289262e-05,1110.50583
1.12578525e-05,1079.04128
1.18867787e-05,1050.10818
1.2515705e-05,1023.38434
1.36964232e-05,978.28049
1.44835688e-05,951.326408
1.52707143e-05,926.484244
1.66494552e-05,887.295638
1.81272073e-05,850.361522
1.96049595e-05,817.68639
2.08379668e-05,793.126846
2.20709742e-05,770.655261
2.39204852e-05,740.264244
2.60801845e-05,708.953004
2.76233801e-05,688.866539
2.91665757e-05,670.396133
3.07097713e-05,653.336098
3.26411894e-05,633.713359
3.45726075e-05,615.758885
3.65040256e-05,599.248947
3.84354437e-05,583.999687
4.20614026e-05,558.262412
4.56873614e-05,535.65347
4.96173817e-05,514.004452
5.41555248e-05,491.999366
5.86936679e-05,472.598598
6.39929197e-05,452.610447
6.7779457e-05,439.787891
7.34592631e-05,422.446472
7.7722091e-05,410.700026
8.24612094e-05,398.7258
8.72003278e-05,387.741556
9.19394463e-05,377.617999
9.72746759e-05,367.118467
0.000106171687,351.403382
0.000112103028,341.982909
0.000118034369,333.281811
0.000129169605,318.596429
0.000140304842,305.696141
0.000152373845,293.343675
0.000161664867,284.792449
0.000175601401,273.261744
0.000190706608,262.220735
0.000202334978,254.577412
0.000213963347,247.566061
0.000231405902,238.057438
0.000245959626,230.910604
0.000260513351,224.371462
0.000275067075,218.358511
0.000289620799,212.804778
0.000316943317,203.431524
0.000335158329,197.830195
0.000353373341,192.667842
0.000385278219,184.524419
0.000419474276,176.849744
0.000453670333,170.060299
0.000482202851,164.957329
0.000525001628,158.097949
0.000567800404,152.029818
0.000603510861,147.469028
0.000639221318,143.296135
0.000692787004,137.652894
0.00073298931,133.830543
0.000777683465,129.934232
0.00082237762,126.360208
0.000867071774,123.066374
0.000917387794,119.650369
0.000973325679,116.168308
0.00105723251,111.473298
0.0011481755,106.978037
0.00125319081,102.409305
0.00135820612,98.3817279
0.00148083393,94.2327022
0.00156845664,91.5713637
0.0016998907,87.9725385
0.00185336805,84.2653106
0.00196303405,81.8874277
0.00207270005,79.7011166
0.00218236605,77.6819881
0.00231962077,75.359862
0.0024568755,73.2354717
0.00259413023,71.282291
0.00273138495,69.4785216
0.0029890609,66.4348162
0.00324673685,63.7618199
0.00352602069,61.2030616
0.00384852031,58.6030721
0.00417101992,56.3116036
0.00454760713,53.9516624
0.00481669447,52.4382833
0.00522032547,50.3923216
0.00552326003,49.0070066
0.0058600418,47.5953291
0.00636521445,45.6926597
0.00670199622,44.5461103
0.00712350235,43.2278937
0.00754500848,42.0223244
0.00796651461,40.9142814
0.00865179305,39.2898211
0.00944311,37.6400367
0.00997065463,36.6518198
0.0104981993,35.7396205
0.0114885882,34.2013837
0.0124789772,32.8516887
0.013552417,31.5608734
0.014378778,30.6682913
0.0152051391,29.8503145
0.0164446807,28.7423569
0.0174789298,27.9107442
0.0185131789,27.1508005
0.0200645526,26.1246765
0.0211714675,25.463656
0.0229408386,24.5098734
0.0241204193,23.9342891
0.0257594199,23.2024761
0.0283797099,22.1698848
0.029689855,21.7068738
0.0316198649,21.079331
0.0342673711,20.3087411
0.0373088329,19.5299113
0.0403502947,18.8438867
0.0441568986,18.0910463
0.0466946345,17.6433063
0.0505012383,17.0390291
0.0536773937,16.5873461
0.0584416268,15.9840603
0.0616177822,15.6237765
0.065193451,15.2522781
0.0691686334,14.8760987
0.0731438158,14.5335171
0.081079942,13.9333085
0.0900018683,13.3654336
0.0990074732,12.8813867
0.108347733,12.4537158
0.117687993,12.0866744
0.128686124,11.7170803
0.138228708,11.4413087
0.152066111,11.1015545
0.164842049,10.8395939
0.174595949,10.6673484
0.19410375,10.3823414
0.209983632,10.1989319
0.220967263,10.0934665
0.231950895,10.0033737
0.248967263,9.8907292
0.267262422,9.80174702
0.279524843,9.75865719
0.307524843,9.70424606
0.339,9.70760196
0.373769808,9.7814522
0.391154712,9.84398001
0.412384904,9.94257685
0.449636078,10.1737322
0.479,10.4084797
0.507,10.6768836
0.521,10.8280721
0.549,11.1662504
0.577,11.5552991
0.596088178,11.8520313
0.619,12.2447911
0.647,12.7840588
0.661,13.0804118
0.689,13.7323256
0.717,14.4723464
0.738523188,15.1092157
0.759,15.7770827
0.773,16.2721815
0.794,17.0798837
0.808,17.6660697
0.829,18.6254878
0.843,19.324277
0.857,20.0756488
0.871,20.884734
0.885,21.7573277
0.899,22.6999935
0.913,23.7201892
0.927,24.8264153
0.944364817,26.3327657
0.962,28.0357812
0.976,29.5297954
0.99,31.1668059
1.004,32.9655058
1.018,34.9477806
1.025,36.015634
1.039,38.3229984
1.053,40.8875055
1.06,42.278294
1.0705,44.5159241
1.0775,46.1179408
1.0845,47.8164534
1.0915,49.6193883
1.102,52.5390025
1.109,54.6434209
1.116,56.8873304
1.123,59.2833827
1.1335,63.1940813
1.1405,66.0360388
1.151,70.6983148
1.158,74.1046252
1.16681423,78.7781626
1.17640711,84.4165466
1.186,90.7184074
1.193,95.7972784
1.1965,98.5060366
1.2035,104.296902
1.2105,110.638278
1.214,114.037564
1.221,121.344114
1.2245,125.27427
1.2315,133.753109
1.2364,140.230712
1.2406,146.178468
1.2448,152.525967
1.2504,161.675251
1.2546,169.105959
1.2602,179.862908
1.2658,191.711048
1.2714,204.803449
1.277,219.320976
1.2798,227.179793
1.284,239.803273
1.2868,248.825776
1.2896,258.378175
1.2924,268.502816
1.2952,279.246354
1.298,290.660285
1.3008,302.801564
1.3036,315.733307
1.3078,336.768517
1.3106,352.000719
1.3134,368.305825
1.3162,385.786851
1.3204,414.470094
1.3232,435.429144
1.3274,470.014185
1.3309,502.115805
1.333,522.995129
1.3351,545.214828
1.3386,585.548935
1.3407,611.949122
1.34245,635.344655
1.3442,660.114063
1.3463,691.805059
1.3484,725.841248
1.3505,762.457966
1.3526,801.92051
1.3547,844.528769
1.3568,890.622716
1.3589,940.588911
1.361,994.868263
1.3631,1053.96531
1.3652,1118.45935
1.36765,1201.41977
1.3687,1239.80247
1.3701,1293.88144
1.37115,1336.77354
1.37255,1397.32449
1.3736,1445.44628
1.375,1513.52191
1.37605,1567.73967
1.37745,1644.6098
1.3785,1705.97162
1.3799,1793.17741
1.3813,1887.10907
1.3827,1988.45578
1.3841,2097.99403
1.3855,2216.60066
1.3869,2345.26803
1.38865,2521.97928
1.39005,2677.63567
1.39075,2760.73146
1.3918,2892.5393
1.3932,3082.86312
1.3939,3184.84151
1.39495,3347.11633
1.39565,3461.95273
1.3967,3645.02582
1.3974,3774.82081
1.39845,3982.13234
1.39915,4129.38957
1.4002,4365.0426
1.4009,4532.74939
1.40195,4801.63979
1.40265,4993.35949
1.4037,5301.32223
1.40475,5635.97797
1.4058,6000.08094
1.40685,6396.66473
1.4079,6829.0541
1.40895,7300.86803
1.40965,7639.22949
1.41035,7998.06282
1.4114,8577.47102
1.41245,9210.1772
1.4135,9900.60031
1.4142,10395.0646
1.4149,10918.2485
1.4156,11471.1816
1.41665,12358.1043
1.41756,13183.6142
1.4184,13992.3002
1.41924,14844.3339
1.42008,15736.713
1.42148,17299.1766
1.42456,20857.1525
1.42568,22073.0499
1.42652,22907.1062
1.42708,23412.2037
1.42764,23867.8561
1.4282,24266.8912
1.42876,24602.6599
1.42932,24869.2911
1.42988,25061.9344
1.43044,25176.9715
1.431,25212.1819
1.43184,25114.1709
1.4324,24950.023
1.43296,24710.1534
1.43352,24398.9059
1.43408,24021.746
1.43464,23585.0293
1.4352,23095.7501
1.43604,22279.4578
1.43716,21076.5162
1.44052,17182.2927
1.4422,15312.6587
1.44332,14147.3496
1.44388,13593.0559
1.445,12544.282
1.4457,11929.8668
1.4464,11346.8491
1.44745,10529.8157
1.44815,10022.1178
1.44885,9542.71195
1.4499,8873.91894
1.45095,8261.56573
1.452,7701.16816
1.45305,7188.33606
1.45375,6870.79326
1.4548,6428.04993
1.4555,6153.652
1.4562,5894.64979
1.4569,5650.06799
1.45795,5308.24368
1.45865,5095.82582
1.45935,4894.8639
1.46005,4704.63057
1.46075,4524.4469
1.46145,4353.67971
1.46221045,4178.14977
1.46291045,4025.17534
1.4639,3821.9844
1.4653,3558.33835
1.4667,3319.64824
1.4681,3103.03311
1.4695,2905.98901
1.4709,2726.33644
1.4723,2562.175
1.473,2485.3762
1.4744,2341.40425
1.4751,2273.89126
1.4765,2147.04023
1.4772,2087.4222
1.4786,1975.16431
1.4793,1922.2926
1.4807,1822.535
1.4814,1775.45615
1.4835,1644.37597
1.4856,1526.92879
1.4877,1421.32887
1.4891,1356.75571
1.4912,1267.66221
1.4926,1212.94722
1.4947,1137.14809
1.4961,1090.41391
1.4982,1025.4299
1.4996,985.219139
1.5017,929.115054
1.5031,894.283974
1.5045,861.339688
1.5059,830.150196
1.508,786.394732
1.5094,759.085523
1.5122,708.499625
1.515,662.728281
1.5178,621.185737
1.5206,583.371874
1.5234,548.857747
1.5262,517.273862
1.529,488.300632
1.5318,461.66056
1.5332,449.138641
1.536,425.554507
1.5388,403.754377
1.543,374.024101
1.5472,347.417347
1.5514,323.514482
1.5556,301.963683
1.5598,282.468258
1.564,264.776636
1.5668,253.877128
1.571,238.730822
1.5752,224.882424
1.5794,212.18871
1.5822,204.305756
1.5864,193.268867
1.5906,183.090465
1.5962,170.707206
1.6018,159.522083
1.6046,154.331402
1.6102,144.67163
1.613,140.173386
1.6172,133.803734
1.6228,125.95516
1.627,120.506632
1.634,112.169383
1.641,104.656158
1.6445,101.175253
1.6515,94.7073364
1.655,91.6999705
1.662,86.0932271
1.6655,83.4777664
1.6725,78.586765
1.676,76.2983825
1.683,72.0070485
1.6865,69.993745
1.6935,66.2085405
1.697,64.4282208
1.704,61.0731008
1.7075,59.4913984
1.7145,56.5040347
1.725,52.4215944
1.732,49.9371339
1.7425,46.5239962
1.7495,44.4363313
1.76,41.5547913
1.767,39.7843014
1.7775,37.3302151
1.7845,35.8162258
1.7915,34.3910715
1.7985,33.0479967
1.8055,31.7808734
1.8125,30.5841325
1.8195,29.4527041
1.82678658,28.3393587
1.837,26.8805075
1.851,25.0544732
1.865,23.405842
1.879,21.9125672
1.893,20.5559085
1.907,19.3198556
1.921,18.190666
1.928,17.6623769
1.942,16.6717728
1.956,15.7613112
1.97,14.922666
1.977,14.5279636
1.991,13.7836815
1.998,13.4326071
2.019,12.4556128
2.04,11.5807041
2.061,10.7942938
2.082,10.0849701
2.096,9.65009005
2.117,9.04854923
2.131,8.67819702
2.152,8.16389314
2.166,7.84604614
2.187,7.40307841
2.201,7.12837304
2.215,6.86876517
2.229,6.62318309
2.257,6.17026386
2.271,5.96121048
2.299,5.57414458
2.327,5.2241246
2.355,4.90663032
2.383,4.61780567
2.411,4.35434543
2.439,4.11340384
2.467,3.89252036
2.495,3.68955904
2.523,3.50265866
2.551,3.33019164
2.579,3.17072985
2.621,2.95321271
2.649,2.82108009
2.677,2.69815316
2.719,2.52924681
2.761,2.37680696
2.803,2.23879024
2.84923118,2.10147566
2.89123118,1.98839642
2.936,1.87862993
2.978,1.7846136
3.02,1.6983186
3.062,1.61893467
3.104,1.54575433
3.146,1.47815771
3.195,1.40562894
3.223,1.36696922
3.279,1.29513172
3.307,1.26173067
3.363,1.19946732
3.391,1.17042799
3.447,1.11613826
3.475,1.09074611
3.54591564,1.03114206
3.615,0.978889456
3.699,0.92205083
3.783,0.871559552
3.839,0.840980744
3.923,0.799173512
3.979,0.773727212
4.063,0.738777209
4.119,0.717411808
4.175,0.697444547
4.287,0.661261978
4.343,0.644852521
4.44533767,0.6174136
4.5642,0.589191772
4.679,0.5651452
4.8078,0.541389568
4.959,0.517214367
5.1284,0.494139755
5.3006,0.474317322
5.46112416,0.458616529
5.62164833,0.445201438
5.771,0.43449925
5.911,0.425836152
6.1056,0.415727901
6.3002,0.407591603
6.471,0.401878892
6.5767,0.398948927
6.7881,0.394353674
6.9624,0.391730106
7.17344459,0.389840087
7.311,0.389316323
7.5602,0.389700836
7.7933,0.391536029
8.0894,0.395831473
8.3078,0.4003758
8.571,0.407399476
8.75845566,0.413446959
8.97685566,0.421619817
9.25665,0.433939358
9.475325,0.445099123
9.694975,0.457758898
9.868301,0.468847611
10.058804,0.482237907
10.348202,0.505217149
10.492901,0.518015669
10.7417,0.542297258
10.9335094,0.563188622
11.1522521,0.589613257
11.4143187,0.625424164
11.630714,0.658924631
11.716076,0.673240582
11.8868,0.703946564
12.111656,0.74910673
12.224084,0.773955949
12.332348,0.799479331
12.46976,0.834342875
12.55304,0.856936621
12.640484,0.88195137
12.807044,0.933616097
12.96944,0.989701693
13.05272,1.02092973
13.136,1.05400286
13.26092,1.10740031
13.38584,1.16585336
13.51076,1.23002355
13.63568,1.30068618
13.71896,1.35184601
13.7938323,1.40090339
13.92716,1.49626578
14.05208,1.59618948
14.177,1.70802305
14.30192,1.8337616
14.34356,1.87917052
14.42684,1.97584041
14.51012,2.08109012
14.5934,2.19597883
14.63504,2.25741438
14.71832,2.38912814
14.78078,2.49641997
14.87447,2.67283976
14.93693,2.80205446
15.03062,3.01585569
15.09308,3.17348164
15.12431,3.25734388
15.18677,3.43616604
15.23882,3.59755852
15.28046,3.73561056
15.3221,3.88233507
15.36374,4.03848088
15.40538,4.20487969
15.44702,4.38245739
15.48866,4.57224714
15.5303,4.77540463
15.57194,4.99322601
15.61358,5.22716887
15.65522,5.47887704
15.69686,5.75020991
15.7385,6.04327728
15.75932,6.19869928
15.80096,6.52897656
15.8426,6.8876526
15.89465,7.38112082
15.92588,7.7042127
15.96752,8.17049426
15.98834,8.42030455
16.02998,8.95694155
16.0508,9.24542473
16.09244,9.86740301
16.11326,10.2030199
16.1549,10.9295458
16.18613,11.5283051
16.20695,11.9560851
16.22777,12.4088386
16.259,13.1392028
16.27982,13.6635479
16.30064,14.2207756
16.32146,14.8137041
16.34228,15.4454606
16.3631,16.1195228
16.38392,16.839767
16.40474,17.6105242
16.42556,18.436646
16.44638,19.3235809
16.4698025,20.4017441
16.4854175,21.1724609
16.503635,22.1292238
16.5218525,23.1535864
16.5407206,24.2927795
16.5589381,25.475823
16.5778063,26.7961986
16.5966744,28.2236867
16.6155425,29.7702193
16.6350613,31.5098919
16.65458,33.4089477
16.6754,35.6330095
16.69622,38.0899002
16.71704,40.8133447
16.73786,43.8434041
16.74827,45.4880233
16.75868,47.2279601
16.76909,49.0707339
16.7821025,51.5315028
16.7925125,53.6372223
16.8029225,55.8759453
16.8133325,58.2591239
16.8237425,60.7994695
16.8341525,63.5111228
16.8445625,66.4098513
16.8549725,69.5132786
16.867985,73.710733
16.878395,77.350688
16.8914075,82.2954233
16.9018175,86.6031285
16.91483,92.4836813
16.9278425,98.9879487
16.940855,106.207357
16.9538675,114.250705
16.9590725,117.727096
16.96688,123.248276
16.972085,127.148624
16.9798925,133.357134
16.9850975,137.753238
16.992905,144.767998
16.99811,149.7475
17.0059175,157.714267
17.012684,165.146152
17.019971,173.754529
17.026217,181.68179
17.035586,194.632388
17.041832,204.052564
17.05016,217.716973
17.058488,232.803421
17.066816,249.515875
17.075144,268.096128
17.079308,278.174677
17.083472,288.832503
17.087636,300.11474
17.0918,312.070995
17.095964,324.75588
17.100128,338.229634
17.104292,352.55883
17.108456,367.817184
17.11262,384.086495
17.116784,401.457726
17.120948,420.032258
17.125112,439.923349
17.129276,461.257834
17.135522,496.282249
17.139686,521.888125
17.141768,535.437929
17.145932,564.1633
17.150096,595.253259
17.152178,611.766379
17.156342,646.911792
17.160506,685.157532
17.162588,705.557379
17.166752,749.169941
17.168834,772.498083
17.172998,822.520766
17.17508,849.35983
17.178203,892.12914
17.181326,938.182685
17.184449,987.861719
17.187572,1041.55244
17.190695,1099.69315
17.193818,1162.78287
17.196941,1231.39145
17.200064,1306.17186
17.202146,1359.82046
17.204228,1416.79353
17.207351,1509.09715
17.209433,1575.65076
17.211515,1646.62654
17.214638,1762.25195
17.21672,1846.09665
17.218802,1935.93996
17.220884,2032.35354
17.222966,2135.97677
17.225048,2247.52632
17.22713,2367.80714
17.229212,2497.72537
17.231294,2638.30324
17.233376,2790.69659
17.235458,2956.21518
17.23754,3136.3466
17.239622,3332.78412
17.241704,3547.4594
17.242745,3662.3143
17.244827,3908.58508
17.246909,4179.2325
17.24795,4324.65238
17.250032,4637.84222
17.251073,4806.57097
17.2526345,5076.31741
17.254196,5367.8103
17.2557575,5683.23577
17.257319,6025.02415
17.2588805,6395.87489
17.260442,6798.78216
17.2620035,7237.05974
17.2632387,7611.21532
17.2642797,7946.93947
17.2651265,8234.70938
17.266688,8802.48094
17.267729,9209.67245
17.26877,9641.53509
17.2703315,10338.9915
17.2713725,10839.4145
17.2724135,11370.1092
17.273975,12226.4832
17.275016,12839.9298
17.276057,13489.1232
17.277098,14175.3582
17.2786595,15276.3691
17.2800128,16301.4356
17.2816784,17652.8673
17.283344,19098.5436
17.2850096,20626.9224
17.2908392,26234.4096
17.2920884,27360.9277
17.2933376,28401.8917
17.2941704,29032.9649
17.2950032,29602.9042
17.295836,30102.7824
17.2966688,30524.316
17.2975016,30860.1823
17.2983344,31104.3207
17.2991672,31252.197
17.3,31301.0095
17.3008328,31249.8198
17.3016656,31099.5973
17.3024984,30853.1734
17.3033312,30515.1097
17.304164,30091.4907
17.3049968,29589.6591
17.3058296,29017.914
17.3066624,28385.1935
17.3079116,27342.0684
17.3095772,25823.9155
17.3141576,21391.723
17.316656,19073.6587
17.3183216,17628.0689
17.3191544,16940.2559
17.3204036,15954.5886
17.3213405,15252.2065
17.3223815,14508.8588
17.323943,13465.8065
17.3255045,12506.0875
17.327066,11625.1868
17.3286275,10817.8971
17.3296685,10317.8865
17.33123,9621.04418
17.332271,9189.58525
17.3338325,8588.1749
17.3348735,8215.60209
17.3359145,7864.09157
17.3369555,7532.32559
17.3379965,7219.05964
17.3390375,6923.12193
17.3400785,6643.41204
17.3411195,6378.89859
17.3421605,6128.61654
17.3432015,5891.66407
17.3442425,5667.19931
17.3452835,5454.43694
17.346845,5155.64755
17.348927,4791.7959
17.351009,4463.10115
17.353091,4165.44409
17.355173,3895.24766
17.357255,3649.40218
17.359337,3425.2003
17.360378,3320.46571
17.36246,3124.3969
17.363501,3032.58076
17.365583,2860.29329
17.366624,2779.42612
17.368706,2627.34598
17.369747,2555.80625
17.371829,2420.98357
17.37287,2357.4295
17.375993,2180.73292
17.378075,2073.49084
17.381198,1926.56233
17.38328,1836.94078
17.386403,1713.5754
17.388485,1637.98326
17.391608,1533.48263
17.39369,1469.18332
17.396813,1379.94532
17.398895,1324.82818
17.402018,1248.05875
17.4041,1200.4774
17.406182,1155.53057
17.408264,1113.02974
17.412428,1034.69218
17.416592,964.255241
17.420756,900.70164
17.42492,843.171142
17.429084,790.932612
17.433248,743.361658
17.437412,699.922607
17.440535,669.774796
17.443658,641.519027
17.447822,606.523936
17.451986,574.296839
17.45615,544.555104
17.462396,504.06909
17.468642,467.910847
17.474888,435.487806
17.481134,406.305002
17.48738,379.946486
17.493626,356.06071
17.49779,341.361213
17.504036,320.95475
17.510282,302.317705
17.516528,285.251967
17.520692,274.66223
17.526938,259.846168
17.533184,246.19337
17.541512,229.596826
17.54984,214.618705
17.554004,207.671763
17.562332,194.750065
17.57066,182.9948
17.580029,170.995878
17.589398,160.136881
17.596685,152.388933
17.607095,142.25808
17.617505,133.103039
17.627915,124.802646
17.63312,120.94015
17.64353,113.733493
17.648735,110.369017
17.659145,104.072401
17.66435,101.124027
17.67476,95.590713
17.679965,92.9926759
17.690375,88.1043173
17.69558,85.803335
17.70599,81.463636
17.711195,79.4161717
17.721605,75.5461403
17.73722,70.2506917
17.74763,67.0238602
17.763245,62.5852167
17.773655,59.8668144
17.78927,56.1099516
17.79968,53.7987086
17.815295,50.5910734
17.825705,48.6097099
17.836115,46.7427455
17.846525,44.9815585
17.86214,42.5211898
17.87255,40.9917434
17.89337,38.1711933
17.91419,35.633112
17.93501,33.3410895
17.95583,31.2643943
17.97665,29.3769435
17.99747,27.6564846
18.01829,26.0839397
18.03911,24.642878
18.04952,23.9671352
18.07034,22.697245
18.09116,21.5267176
18.11198,20.4454896
18.12239,19.9355626
18.15362,18.5167068
18.18485,17.2462458
18.21608,16.1042795
18.24731,15.0741338
18.27854,14.141753
18.30977,13.2952217
18.341,12.5243857
18.37223,11.8205488
18.40346,11.1762285
18.42428,10.7765166
18.46592,10.0411287
18.48674,9.70249061
18.52838,9.07685011
18.57002,8.51264466
18.59084,8.25113302
18.63248,7.76505903
18.67412,7.32334631
18.69494,7.11749025
18.73658,6.73291886
18.77822,6.38118715
18.81986,6.05875414
18.8615,5.76254614
18.88232,5.6234258
18.92396,5.36164054
18.9656,5.11999894
19.00724,4.8965733
19.04888,4.68966395
19.09052,4.49776781
19.13216,4.3195519
19.1738,4.15383093
19.21544,3.99954828
19.25708,3.85575979
19.29872,3.72161986
19.34036,3.59636957
19.41323,3.3965577
19.47569,3.24289769
19.50692,3.17158288
19.56938,3.03903627
19.60061,2.97746509
19.66307,2.86296524
19.75676,2.71083747
19.81922,2.62115746
19.88168,2.53994953
19.96496,2.44369926
20.04824,2.35996057
20.13152,2.28760256
20.2148,2.22569082
20.25644,2.19840717
20.33972,2.15077695
20.423,2.11195184
20.50628,2.08150665
20.57,2.06367328
20.6654,2.04559819
20.7875,2.03733585
20.9096,2.04583473
21.0317,2.07161881
21.1131,2.09890381
21.1538,2.11573339
21.2352,2.15610991
21.2759,2.17982074
21.37765,2.25016003
21.4387,2.30053983
21.49975,2.35762709
21.5608,2.42198188
21.6070548,2.47597371
21.6639387,2.5490794
21.713425,2.6191904
21.774475,2.71482814
21.82535,2.80298237
21.86605,2.87956153
21.9271,3.00551935
21.9678,3.09758743
22.02885,3.24921634
22.0899,3.4190117
22.15095,3.60952248
