energy [eV],cross section [b]
1e-05,8572.36262
1.08640958e-05,8224.39151
1.17281916e-05,7915.62257
1.26586573e-05,7619.1552
1.37218628e-05,7318.02936
1.47850684e-05,7049.99906
1.60116004e-05,6774.59607
1.68837305e-05,6597.30567
1.81919258e-05,6355.67275
1.97010821e-05,6107.39327
2.07741733e-05,5947.5636
2.29203558e-05,5662.26746
2.42407146e-05,5505.90103
2.55610735e-05,5361.81246
2.82017912e-05,5104.6142
3.06386961e-05,4897.40737
3.30756011e-05,4713.54434
3.5699681e-05,4537.00657
3.86981111e-05,4357.69484
4.16965411e-05,4198.09058
4.51555811e-05,4034.09613
4.76151444e-05,3928.52488
5.13044893e-05,3784.63957
5.55605804e-05,3636.79647
5.85868899e-05,3541.62264
6.46395089e-05,3371.73729
6.83631574e-05,3278.62578
7.20868059e-05,3192.82537
7.95341029e-05,3039.67161
8.64066113e-05,2916.28628
9.55699557e-05,2772.95819
0.000103498198,2664.63632
0.000111954308,2562.0304
0.000120410418,2470.43252
0.000130815032,2370.15434
0.000137751441,2309.7111
0.000148156054,2227.13458
0.000156690789,2165.63258
0.000169492891,2082.24242
0.000187545671,1979.49428
0.000198047027,1926.3005
0.000208548383,1877.17697
0.000230760985,1784.54847
0.000250142689,1714.02214
0.000275984962,1631.8066
0.000299832707,1565.57136
0.000323680451,1506.79827
0.000349359905,1450.36688
0.000368921821,1411.39324
0.000388483737,1375.4018
0.000417826611,1326.23097
0.000441896092,1289.6092
0.000478000314,1239.95407
0.000514104535,1195.62629
0.00054372024,1162.61158
0.000573335944,1132.18925
0.000602951648,1104.0369
0.000632567352,1077.88559
0.000669007272,1048.12272
0.00072366715,1007.76758
0.000800745333,958.044731
0.000868000243,920.186489
0.000935255154,886.489313
0.00101284156,851.865474
0.00106800967,829.576555
0.00115076183,799.198708
0.00124622613,767.985533
0.00131410638,747.892243
0.00141592675,720.506892
0.00149162767,701.990889
0.00157514926,683.131517
0.00165867086,665.715341
0.00183533679,632.875359
0.00193810389,615.873984
0.00204087099,600.173656
0.00225824527,570.569176
0.00244791617,548.029077
0.00263758706,527.966664
0.00285639464,507.352835
0.00308977055,487.827211
0.00332314647,470.396808
0.00351458093,457.415142
0.00380173261,439.813818
0.0040888843,424.10133
0.00432443015,412.399187
0.004559976,401.616176
0.00479552184,391.637978
0.00503106769,382.369242
0.00532088932,371.820754
0.00561071095,362.100854
0.00590053257,353.106486
0.0061903542,344.75169
0.00654695813,335.243411
0.00708186404,322.351871
0.00783615723,306.468944
0.00849431911,294.376906
0.009152481,283.614761
0.00991174776,272.557603
0.0104516272,265.440187
0.0112614464,255.740593
0.0121956676,245.775397
0.0128599491,239.361046
0.0141885121,227.913067
0.0156054769,217.354722
0.0162229538,213.193262
0.0174579077,205.543936
0.0184635947,199.891363
0.0194692816,194.683506
0.0214806556,185.389871
0.0233903278,177.702704
0.0253,170.905648
0.0271916257,164.893911
0.0294754609,158.424378
0.0317592961,152.668673
0.0334572709,148.778762
0.0353306636,144.818298
0.0381407528,139.437033
0.0423192159,132.455523
0.0469293565,125.869824
0.0520706442,119.591904
0.057743079,113.672791
0.0623241736,109.501776
0.0675588051,105.272463
0.0745383137,100.353329
0.080979138,96.4009852
0.0874199623,92.9036094
0.0965926089,88.5559651
0.101471373,86.4948801
0.1112289,82.8015306
0.119347769,80.0940964
0.12584848,78.1266888
0.138849903,74.6368962
0.146848544,72.7383662
0.154847185,70.9994228
0.170844467,67.9251595
0.189157134,64.9426009
0.2074698,62.4113682
0.222320915,60.6264104
0.234430434,59.3203803
0.258649472,57.0459406
0.281180086,55.26576
0.3037107,53.7501983
0.327415502,52.3943656
0.345748672,51.4897212
0.364081842,50.6951949
0.391581597,49.6855059
0.4204167,48.8325516
0.4408818,48.3403428
0.461346899,47.9333443
0.48900225,47.5078944
0.520252725,47.1857223
0.568373175,46.9906089
0.611881776,47.1061035
0.645365895,47.3753241
0.6886743,47.9525991
0.72943784,48.7341941
0.76566702,49.6289277
0.80416338,50.7965209
0.84265974,52.2027452
0.879713436,53.800727
0.91965246,55.8188651
0.95814882,58.0880704
0.99664518,60.7168435
1.03514154,63.7561926
1.0736379,67.2693942
1.09288608,69.2275822
1.11785634,71.9924133
1.15063062,76.0520393
1.1698788,78.6921852
1.18912698,81.5440147
1.20837516,84.6283375
1.22762334,87.9687206
1.24687152,91.5919281
1.2661197,95.5284458
1.28536788,99.8131079
1.30461606,104.485851
1.32386424,109.592624
1.34311242,115.186495
1.3623606,121.328994
1.38160878,128.091769
1.40085696,135.558622
1.42010514,143.828035
1.43935332,153.01632
1.44897741,157.997218
1.46341354,166.006705
1.48266172,177.808818
1.49228581,184.248654
1.50672195,194.664844
1.51634604,202.162386
1.52597013,210.146606
1.53559422,218.659702
1.55003035,232.52475
1.55965445,242.576298
1.57409058,259.018822
1.58371467,270.993004
1.5981508,290.675236
1.60777489,305.080263
1.62221103,328.884033
1.62702307,337.466292
1.63664716,355.707482
1.64145921,365.405494
1.6510833,386.063865
1.65589534,397.071571
1.66551943,420.574604
1.67189748,437.335368
1.67995557,459.995748
1.68476761,474.381448
1.6943917,505.251342
1.69920375,521.822092
1.70882784,557.47537
1.71363988,576.664509
1.72326397,618.063925
1.73288807,663.937987
1.74251216,714.892552
1.74973022,756.857488
1.75454227,786.799896
1.75935431,818.438042
1.76416636,851.885484
1.7689784,887.263222
1.77379045,924.699908
1.77860249,964.331969
1.78341454,1006.3036
1.78822658,1050.76657
1.79303863,1097.87988
1.79785067,1147.80901
1.80266272,1200.72486
1.80747476,1256.80224
1.81228681,1316.21771
1.81950487,1411.98222
1.82431692,1480.498
1.83153499,1590.66244
1.83875305,1710.06404
1.84741474,1865.87516
1.85511401,2015.77365
1.86281328,2175.77042
1.87243737,2387.79787
1.89553519,2916.55984
1.90323446,3081.05797
1.90900891,3193.26421
1.91285855,3260.84533
1.91670818,3321.45827
1.92055782,3374.12563
1.92440746,3417.9456
1.92825709,3452.12702
1.93210673,3476.02234
1.93595636,3489.15643
1.93961352,3491.40825
1.94365564,3482.22638
1.94750527,3462.22914
1.95135491,3431.60237
1.95520454,3390.88185
1.95905418,3340.76995
1.96290382,3282.10548
1.96675345,3215.8297
1.97060309,3142.95088
1.97637754,3023.52881
1.982152,2895.07389
2.00524981,2351.11671
2.01294908,2176.00308
2.02064836,2009.63305
2.02834763,1853.64919
2.0360469,1708.85388
2.04326497,1583.44317
2.05048304,1467.84768
2.05714537,1369.51618
2.06297572,1289.71551
2.06973122,1204.11452
2.07454326,1147.36164
2.0793553,1093.9072
2.08416735,1043.56441
2.08897939,996.150917
2.09379144,951.490439
2.09860348,909.413891
2.10341553,869.760102
2.10822757,832.376217
2.11303962,797.117857
2.11785166,763.849103
2.12266371,732.442337
2.12747575,702.778001
2.13469382,661.305984
2.13950587,635.524578
2.14431791,611.125721
2.15153598,576.929623
2.16116007,535.40503
2.16597211,516.22636
2.1755962,480.718382
2.18040825,464.274947
2.19003234,433.752814
2.19484439,419.581995
2.20446848,393.213673
2.20928052,380.941614
2.21890461,358.053743
2.2285287,337.175691
2.23334075,327.423156
2.24296483,309.171717
2.25517476,288.1982
2.26501333,272.882367
2.26993262,265.706653
2.27977119,252.242332
2.28469047,245.925741
2.29452904,234.060315
2.30436761,223.143277
2.31420618,213.094161
2.32896404,199.496505
2.33880261,191.329055
2.34864118,183.821027
2.35847975,176.930138
2.36831832,170.620639
2.37815689,164.862877
2.38799546,159.632947
2.39783402,154.912404
2.4076726,150.687994
2.41751117,146.951362
2.42734973,143.698631
2.43718831,140.929752
2.44702688,138.647423
2.45686545,136.855311
2.46670402,135.555217
2.47555873,134.80238
2.48736501,134.3913
2.4991713,134.593332
2.53459015,137.023116
2.54836415,137.282964
2.556235,136.829493
2.56213814,136.115115
2.56902514,134.830519
2.57591214,133.041473
2.58181528,131.114437
2.58771843,128.850069
2.59952471,123.475833
2.60936328,118.386079
2.63297585,105.440018
2.64478213,99.2040413
2.65658842,93.3821696
2.6683947,88.0497567
2.67823327,83.9920471
2.68315256,82.091803
2.69299113,78.5365872
2.7028297,75.2881933
2.71266827,72.3202104
2.72250683,69.6059423
2.73234541,67.1198774
2.74218398,64.8384502
2.75694183,61.7540367
2.7667804,59.8960313
2.78153826,57.3670502
2.79137683,55.8336074
2.80613468,53.734035
2.82581182,51.260628
2.84548896,49.1054238
2.8651661,47.2222834
2.87500467,46.3713683
2.89468181,44.8329212
2.91435895,43.4935602
2.92419752,42.8928846
2.94387466,41.8209932
2.9635518,40.9134834
2.98322894,40.1638812
3.00290608,39.569351
3.015621,39.2678432
3.02993478,39.0074396
3.04910359,38.7941412
3.0682724,38.7445912
3.0778568,38.7852844
3.09702561,39.0084917
3.10661002,39.1964699
3.12577882,39.7421549
3.13536323,40.1082218
3.14494763,40.5430489
3.15932424,41.3372799
3.17370085,42.3231611
3.18807746,43.5295812
3.20245406,44.9920587
3.21203847,46.1305134
3.22641508,48.1219973
3.23599948,49.6657176
3.24558389,51.4075098
3.25037609,52.3604631
3.2599605,54.4481057
3.2695449,56.8046569
3.27912931,59.4661891
3.28871371,62.4740262
3.29350591,64.1222828
3.30309032,67.7397214
3.31267472,71.8325289
3.32225913,76.4627316
3.32705133,79.0000858
3.33184353,81.697079
3.33663574,84.5623915
3.34382404,89.1945989
3.35101234,94.2519179
3.35820065,99.7576398
3.36538895,105.728076
3.37305647,112.614331
3.380724,120.020406
3.38839152,127.901091
3.39605905,136.16981
3.41714474,159.546231
3.42481226,167.505161
3.4305629,172.945344
3.43631355,177.746468
3.44014731,180.50988
3.44398107,182.869068
3.44781483,184.782236
3.45164859,186.213695
3.45548236,187.135392
3.45931612,187.528172
3.46314988,187.382676
3.46890052,186.159915
3.47273429,184.694855
3.47656805,182.738117
3.48040181,180.323205
3.48423557,177.490325
3.4919031,170.755103
3.49765374,164.963049
3.50340438,158.723674
3.53024072,127.895676
3.541742,115.518477
3.54940953,107.872497
3.55516017,102.489871
3.56186925,96.6002714
3.56666146,92.6491182
3.57145366,88.906521
3.57624586,85.3664568
3.58343416,80.4198833
3.58822637,77.3523896
3.59301857,74.4587788
3.60020687,70.4246321
3.60499907,67.9262735
3.60979128,65.5705193
3.61937568,61.2532313
3.62896009,57.4091546
3.63375229,55.6463815
3.64333669,52.4065045
3.6529211,49.508276
3.6625055,46.9097484
3.66729771,45.7112517
3.67688211,43.4952361
3.68646652,41.4963077
3.69605092,39.6887951
3.70084313,38.8497425
3.71521973,36.5619096
3.72959634,34.5739506
3.74397295,32.8381009
3.75355735,31.8014027
3.76314176,30.8495872
3.77751837,29.5626507
3.78710277,28.7879539
3.79668718,28.0725134
3.81585598,26.7981162
3.83204851,25.8622844
3.8446092,25.2127612
3.86377801,24.3332192
3.88294682,23.5706825
3.90211563,22.9085075
3.92128444,22.3332368
3.94045325,21.8339431
3.95962206,21.4017295
3.97879087,21.0293474
3.99795968,20.7109035
4.01712849,20.441635
4.05161222,20.0694415
4.07077604,19.9202087
4.10910368,19.737203
4.14743132,19.7042207
4.16659514,19.7448999
4.18575896,19.8255582
4.20492278,19.9485981
4.2240866,20.1173864
4.25283233,20.4666391
4.27199615,20.7728551
4.29115997,21.1478065
4.31032379,21.6029915
4.3199057,21.8651809
4.33906952,22.4701247
4.34865143,22.8184391
4.35823334,23.2017099
4.37260621,23.8508734
4.38697907,24.6034005
4.39656098,25.1719547
4.41093385,26.1422891
4.42051576,26.8794618
4.43488862,28.1449746
4.44447053,29.111878
4.45405244,30.1927218
4.46363435,31.402382
4.47321626,32.7570987
4.48279817,34.2740582
4.49238008,35.9705489
4.50196199,37.862464
4.51346028,40.4071982
4.51920943,41.7940885
4.52687496,43.7587623
4.53837325,46.92727
4.5652026,54.7679072
4.57095174,56.3478802
4.57670089,57.813275
4.58436642,59.516902
4.59203194,60.8466183
4.59969747,61.7203876
4.60544662,62.0420428
4.60927938,62.0908941
4.61311215,62.0071213
4.61694491,61.7934538
4.62077767,61.4550383
4.6284432,60.4351497
4.63610873,59.0260851
4.64185788,57.7710496
4.64760702,56.3929457
4.67635275,48.9381746
4.68785104,46.1741194
4.69551657,44.4889415
4.70126572,43.3165257
4.70797306,42.0503044
4.71505038,40.832205
4.72713688,39.0215982
4.73671879,37.8120417
4.7463007,36.7844268
4.75109165,36.3335699
4.76067356,35.5475551
4.77504643,34.6296155
4.78941929,33.9853692
4.80379216,33.5781041
4.81816502,33.3792468
4.83253789,33.3675048
4.8421198,33.4560256
4.8517017,33.6179545
4.86607457,33.9944082
4.87565648,34.3332654
4.88523839,34.7427144
4.89961125,35.4922422
4.91576063,36.5377903
4.92534527,37.2672516
4.9349299,38.0842313
4.94930685,39.4885152
4.95889149,40.5559392
4.96847612,41.7399856
4.98285308,43.7614189
4.99243771,45.2938402
5.00202235,46.9942508
5.00681466,47.9137099
5.0163993,49.9053605
5.02119162,50.9838865
5.03077625,53.3239356
5.03556857,54.5932491
5.04515321,57.3519269
5.04994552,58.8507054
5.05953016,62.1127432
5.06911479,65.7645771
5.07869943,69.8537234
5.08349174,72.0776829
5.09307638,76.9148278
5.0978687,79.5393945
5.10745333,85.2243894
5.1160795,90.8537428
5.12758107,99.1105321
5.13908263,108.138317
5.16591961,130.484007
5.17550424,137.821241
5.18317195,142.910612
5.18892273,146.089429
5.19275658,147.843791
5.19659044,149.273522
5.20234122,150.761258
5.20617507,151.292912
5.21000893,151.447528
5.21384278,151.225577
5.21767664,150.634751
5.22151049,149.689612
5.22534434,148.410923
5.2291782,146.82474
5.23492898,143.935928
5.24067976,140.537468
5.24834747,135.420045
5.27710137,114.346082
5.28476908,109.052512
5.29243679,104.099378
5.3001045,99.5302064
5.30873067,94.8712169
5.3183153,90.2908878
5.32310762,88.2289139
5.33269225,84.5374339
5.33748457,82.8966478
5.34706921,79.9950463
5.35665384,77.5600718
5.36623848,75.5458496
5.37103079,74.6832072
5.38061543,73.2226887
5.38540775,72.6160316
5.39499238,71.6301754
5.40936934,70.6692246
5.42374629,70.2622753
5.43812324,70.350504
5.45250019,70.8910634
5.46687714,71.8547088
5.47646178,72.7230985
5.48604641,73.7689369
5.49563105,74.9915379
5.50521568,76.3920294
5.51480032,77.9732971
5.52438495,79.7399613
5.53396959,81.6983868
5.54355422,83.8567243
5.55313886,86.2249845
5.56751581,90.1977541
5.578257,93.5211781
5.58740835,96.6130193
5.59729913,100.245745
5.61213531,106.318118
5.62202609,110.826543
5.63191688,115.744666
5.64180766,121.113879
5.64675306,123.982184
5.65664384,130.118904
5.66653463,136.838227
5.67642541,144.206618
5.6863162,152.300353
5.69126159,156.646119
5.70115237,165.996225
5.71104316,176.316108
5.71598855,181.877943
5.72587934,193.891948
5.73082473,200.382614
5.74071551,214.438356
5.74566091,222.051029
5.753079,234.274734
5.75802439,243.002328
5.76544248,257.039757
5.77286057,272.315365
5.78027866,288.955485
5.78769674,307.09827
5.79511483,326.893642
5.80151843,345.434143
5.80995101,372.095513
5.8173691,397.849099
5.82231449,416.306539
5.82725988,435.854945
5.83220528,456.543114
5.83715067,478.415347
5.84209606,501.509162
5.84704145,525.852482
5.85149231,548.84245
5.85742678,581.085866
5.86533941,626.824314
5.87720835,700.688142
5.90490255,883.327624
5.91281517,931.546283
5.91874965,964.156012
5.92270596,983.638734
5.92666227,1000.96894
5.93259674,1022.32229
5.93655306,1033.10607
5.94050937,1040.89455
5.94446569,1045.54251
5.94763074,1046.93817
5.95040016,1046.44881
5.95435647,1042.99144
5.95831278,1036.35178
5.9622691,1026.65364
5.96622541,1014.07393
5.97018173,998.83481
5.97413804,981.19433
5.97809435,961.436197
5.98402883,928.484289
5.99194145,879.949149
6.01567934,723.038466
6.02754828,647.840275
6.03546091,601.028218
6.03941722,578.779963
6.04732985,536.722354
6.05227524,512.109837
6.05722064,488.77614
6.06463872,456.116666
6.06958412,435.849707
6.07452951,416.734563
6.0819476,390.11041
6.08936569,365.784565
6.09678377,343.575127
6.10420186,323.30418
6.11161995,304.802012
6.11903804,287.909555
6.12398343,277.468998
6.13140152,262.938273
6.13634691,253.949686
6.1462377,237.494157
6.15118309,229.964422
6.16107388,216.159396
6.17096466,203.859971
6.17591006,198.218591
6.18580084,187.853292
6.19569163,178.59468
6.20063702,174.341151
6.2105278,166.516515
6.22041859,159.52048
6.23030937,153.266932
6.24020016,147.681199
6.24514555,145.118166
6.25503633,140.415377
6.26492712,136.234058
6.2748179,132.528673
6.28470869,129.259686
6.29954487,125.100692
6.30943565,122.782536
6.32427183,119.927435
6.33416262,118.410113
6.34899879,116.673153
6.35888958,115.855822
6.37372575,115.115862
6.38361654,114.935834
6.39845272,115.123263
6.4083435,115.549229
6.42317968,116.638302
6.432686,117.622174
6.44497551,119.231203
6.45491182,120.816819
6.46981628,123.690814
6.47975258,125.951993
6.48968888,128.503907
6.49962519,131.361617
6.51452965,136.260684
6.52446595,139.965728
6.53440226,144.050595
6.54433856,148.543773
6.55924302,156.121363
6.56917933,161.787361
6.58408378,171.320043
6.59402009,178.441218
6.59898824,182.254124
6.60892454,190.427284
6.61886085,199.39416
6.623829,204.201725
6.63376531,214.524659
6.64370161,225.880742
6.64866977,231.983361
6.65860607,245.121555
6.66854238,259.629918
6.67351053,267.450492
6.68344683,284.343362
6.68841498,293.468542
6.69835129,313.223502
6.70331944,323.918704
6.71325575,347.126453
6.7182239,359.719797
6.72567613,379.97162
6.73312836,402.005184
6.74058059,426.002306
6.74803282,452.162937
6.75548504,480.70575
6.76293727,511.868074
6.76790543,534.223458
6.77287358,557.93543
6.78032581,596.226411
6.78777803,638.035862
6.79523026,683.643945
6.80019842,716.291472
6.80516657,750.815938
6.81013472,787.277117
6.81758695,845.692548
6.82354873,895.674813
6.82951052,948.507585
6.8354723,1004.06746
6.84342134,1081.97207
6.87323026,1391.17286
6.87919204,1449.20991
6.88515382,1502.82939
6.88912835,1535.33336
6.89310287,1564.68985
6.89707739,1590.4424
6.90105191,1612.16816
6.90502643,1629.49411
6.90900096,1642.11256
6.91297548,1649.79463
6.91754618,1652.34988
6.92092452,1649.88728
6.92489904,1642.30869
6.92887357,1629.81509
6.93284809,1612.64537
6.93682261,1591.1164
6.94079713,1565.60942
6.94477165,1536.55442
6.94874618,1504.41385
6.95470796,1451.46575
6.96066974,1394.26159
6.9884914,1111.26633
6.99644044,1034.81103
7.00041496,998.235138
7.00836401,928.822904
7.01432579,880.230613
7.0212812,827.40257
7.02624936,792.213655
7.03121751,759.113345
7.03618566,728.053998
7.04363789,685.159454
7.05109012,646.491008
7.05949838,607.625406
7.06746602,575.145432
7.07226131,557.511915
7.07705659,541.242859
7.08424952,519.273124
7.09144246,500.064619
7.09863539,483.451164
7.10582832,469.278362
7.11302125,457.399265
7.12069371,447.092335
7.12452994,442.798231
7.1322024,435.804212
7.13987486,430.746313
7.14754732,427.356415
7.15905601,424.660754
7.1839915,421.875135
7.1955002,417.947145
7.20125454,414.556476
7.2072007,409.84671
7.21276323,404.26124
7.21851757,397.278144
7.22810815,383.104961
7.2338625,373.296551
7.23961684,362.726497
7.2472893,347.79543
7.27030668,301.533957
7.27797914,286.815324
7.2856516,272.839991
7.29716029,253.521712
7.30483275,241.816688
7.31442332,228.51813
7.31921861,222.412112
7.32880919,211.241042
7.33839976,201.382727
7.34319505,196.91577
7.35278563,188.846066
7.3623762,181.852603
7.37196677,175.852145
7.38155735,170.772366
7.388918,167.459819
7.39669482,164.485108
7.40653564,161.461333
7.41637645,159.234364
7.42621726,157.782434
7.43605806,157.09427
7.44097847,157.035616
7.44589887,157.167711
7.45573968,158.007801
7.46558049,159.624
7.47443722,161.750349
7.48230987,164.178031
7.49018252,167.109148
7.49805517,170.532974
7.50592782,174.427236
7.51380046,178.754824
7.52167311,183.461453
7.53938657,195.043933
7.58071797,223.288016
7.59252694,231.680315
7.60630408,242.685328
7.61220856,248.061067
7.61811305,253.961676
7.62795386,265.190169
7.63189018,270.235622
7.63976283,281.384369
7.64369916,287.520225
7.6515718,300.977622
7.65944445,316.064289
7.66701865,332.121504
7.67096599,341.071044
7.67886065,360.075072
7.68675532,380.342157
7.71043933,444.032102
7.71833399,463.776644
7.724255,477.094163
7.73214966,491.991184
7.736097,497.91923
7.74004433,502.676416
7.74399167,506.164204
7.747939,508.304605
7.75188633,509.043622
7.75583367,508.353712
7.76175467,504.647578
7.765702,500.446311
7.76964934,494.934555
7.77359667,488.200968
7.777544,480.352503
7.78543867,461.803538
7.79135967,445.918995
7.79728067,428.846914
7.82096468,356.564889
7.82885935,333.28197
7.83675401,311.155325
7.84464868,290.407752
7.85254335,271.15155
7.8599446,254.481868
7.86734585,239.131125
7.8747471,225.050755
7.88214835,212.174421
7.88708252,204.221818
7.89448377,193.181438
7.89941794,186.378947
7.90681919,176.953783
