energy [eV],cross section [b]
1e-05,3278.53175
1.0621884e-05,3181.10962
1.155471e-05,3050.00052
1.2487536e-05,2933.87149
1.32641159e-05,2846.69102
1.40406958e-05,2766.84731
1.52055657e-05,2658.75458
1.60787341e-05,2585.55416
1.7048491e-05,2510.94165
1.8018248e-05,2442.43683
1.89880049e-05,2379.24947
2.06838709e-05,2279.62697
2.18948584e-05,2215.68828
2.31058458e-05,2156.84447
2.50729458e-05,2070.50908
2.73412833e-05,1982.76132
2.96096207e-05,1905.3007
3.22541296e-05,1825.52322
3.4142526e-05,1774.32125
3.69751206e-05,1705.00383
3.90983897e-05,1658.06206
4.14565315e-05,1610.21476
4.38146733e-05,1566.28418
4.61728151e-05,1525.76357
4.8824255e-05,1483.75666
5.32413621e-05,1420.87554
5.61861002e-05,1383.14037
5.91308383e-05,1348.26036
6.46467167e-05,1289.4595
7.01625951e-05,1237.73672
7.61358384e-05,1188.19221
8.30238114e-05,1137.8372
8.99117844e-05,1093.3856
9.79420296e-05,1047.60445
0.000103676284,1018.22167
0.000112277665,978.443171
0.000118725127,951.505172
0.000125885798,924.047529
0.000133046468,898.837548
0.000140207139,875.584412
0.00014825843,851.478358
0.0001616713,815.393468
0.000170613213,793.738811
0.000179555126,773.722625
0.000196304495,739.979271
0.000213053864,710.297757
0.000231192056,681.866279
0.000252107891,652.969717
0.000273023726,627.460887
0.000288701913,610.186323
0.000306114396,592.578536
0.00033223312,568.809804
0.000349645603,554.466095
0.000371389504,537.990782
0.000393133405,522.901986
0.000414877306,509.015543
0.000436621207,496.17981
0.000463773982,481.436577
0.000490926756,467.934098
0.000518079531,455.507571
0.000562185868,437.275463
0.000613046556,418.745148
0.000663907244,402.387295
0.000723202451,385.540233
0.000786714918,369.651749
0.000850227385,355.578686
0.000903101667,345.013786
0.000955975948,335.338019
0.00103528737,322.238983
0.00109473799,313.368354
0.00116076494,304.32664
0.00122679189,296.025107
0.00129281883,288.367984
0.001367058,280.430033
0.0014495094,272.338994
0.00157318648,261.416969
0.00170711861,250.955001
0.00186156082,240.321984
0.00201600303,230.935629
0.00219605727,221.268633
0.00232463078,215.064323
0.00251749104,206.664995
0.00274233443,198.01456
0.00290289106,192.462699
0.00314372601,184.946668
0.00332425216,179.856883
0.00352474784,174.668979
0.00372524351,169.905816
0.00392573918,165.512436
0.00415117187,160.957973
0.00452672641,154.140429
0.00477709611,150.049286
0.0050274658,146.267756
0.00549644089,139.892993
0.00596541598,134.285766
0.00647327748,128.914864
0.00686370037,125.197978
0.0074493347,120.180723
0.00808352858,115.374971
0.00857107056,112.049221
0.00905861255,108.99582
0.00954615454,106.179527
0.0100943354,103.260043
0.0107031553,100.284365
0.0113119751,97.5523943
0.0119207949,95.0325973
0.0125628892,92.5762376
0.013238258,90.1880492
0.0142513112,86.9295194
0.01492668,84.9441208
0.0162156534,81.5054204
0.0176397306,78.1539262
0.0190638078,75.1856964
0.0202493556,72.9576183
0.0220276771,69.9594661
0.0238059987,67.304262
0.0253,65.2937972
0.0264069567,63.9157015
0.02862087,61.4037396
0.0306521897,59.3430312
0.0325009157,57.6383499
0.0343496417,56.0734742
0.0361983677,54.6303125
0.039431334,52.3555327
0.0417399372,50.8959471
0.0440485405,49.5529709
0.0477985821,47.5831554
0.052122897,45.5819456
0.056447212,43.8161607
0.0614886529,41.9984945
0.0650886555,40.8324738
0.0704886594,39.2547377
0.0745364188,38.1869071
0.079031935,37.0990556
0.0857752093,35.6316189
0.0902707255,34.7467307
0.0958845176,33.7310443
0.10149831,32.8015757
0.107112102,31.9468755
0.116231015,30.6942597
0.12674638,29.4231406
0.133756623,28.6614626
0.140766866,27.9582756
0.154288693,26.7421558
0.16781052,25.67893
0.181248967,24.7450296
0.197646475,23.7404133
0.214043983,22.8569441
0.226335301,22.2607813
0.239986265,21.6551636
0.25363723,21.1011935
0.267288195,20.5922248
0.285758848,19.9655536
0.297404018,19.6025868
0.32069436,18.9407859
0.352944,18.1429894
0.384874676,17.4628498
0.406161793,17.0594488
0.42744891,16.6902909
0.4735782,15.9895979
0.518728325,15.4117678
0.556949285,14.9902401
0.603291122,14.5478869
0.64650985,14.1925887
0.694754714,13.8511442
0.751148825,13.5147588
0.805856079,13.2436395
0.857332139,13.0315407
0.90726386,12.8610749
0.97045068,12.689877
1.00867164,12.6083905
1.06226698,12.520031
1.12333452,12.4539418
1.19977644,12.4200096
1.29797996,12.4521219
1.39088124,12.5589641
1.46732316,12.7030762
1.54376508,12.8997521
1.62085715,13.1544036
1.69664892,13.4642247
1.77309084,13.8423454
1.84953276,14.2941762
1.92597468,14.8298128
2.0024166,15.4622397
2.07885852,16.2081708
2.11707948,16.6302255
2.15530044,17.0892347
2.1935214,17.5889465
2.23174236,18.1336669
2.26996332,18.7283588
2.30818428,19.3787647
2.36551572,20.4737294
2.40373668,21.2951054
2.44195764,22.2009365
2.4801786,23.2029299
2.49928908,23.7442373
2.52754124,24.5990794
2.55662052,25.5538132
2.575731,26.2268565
2.61395196,27.6946782
2.63306244,28.4961606
2.6712834,30.253825
2.69994912,31.725718
2.72861484,33.3498347
2.75728056,35.1483682
2.78594628,37.1477941
2.814612,39.3799058
2.83372248,41.015915
2.85283296,42.7856399
2.88149868,45.7250731
2.89105392,46.7898073
2.9101644,49.0621748
2.91971964,50.2756844
2.93883012,52.8738196
2.9579406,55.725262
2.97705108,58.8647516
2.99616156,62.3332424
3.01144994,65.3772448
3.02864938,69.1267321
3.04202671,72.3104422
3.0573151,76.272265
3.07260348,80.6227559
3.08024767,82.9600727
3.09171396,86.6895766
3.09935815,89.3370992
3.11082444,93.573372
3.12611282,99.7719747
3.13375702,103.134042
3.1452233,108.544246
3.15266081,112.310824
3.16231939,117.535214
3.17197798,123.17276
3.18153322,129.200739
3.19108846,135.726952
3.2006437,142.808229
3.21019894,150.509724
3.21975418,158.906417
3.22930942,168.084938
3.2407757,180.273827
3.25033094,191.549797
3.25606409,198.865387
3.26179723,206.635307
3.26753038,214.897981
3.272308,222.190512
3.27708562,229.881769
3.28281876,239.679413
3.2885519,250.150358
3.29428505,261.35757
3.30001819,273.371491
3.30575134,286.271119
3.31148448,300.14527
3.31721762,315.094064
3.32295077,331.230674
3.32868391,348.683394
3.33441706,367.598099
3.34110572,391.7363
3.34779439,418.397947
3.35352754,443.530356
3.35926068,471.044341
3.36308278,490.859262
3.36690487,511.970215
3.37072697,534.490797
3.37454906,558.547047
3.37837116,584.279081
3.38219326,611.842958
3.38601535,641.412848
3.38983745,673.183525
3.39365954,707.373264
3.39748164,744.227194
3.40130374,784.021201
3.40512583,827.066466
3.40894793,873.714769
3.41277002,924.364669
3.41659212,979.46874
3.42136974,1055.40389
3.42519184,1122.52434
3.42710288,1158.44135
3.42996946,1215.53055
3.4318805,1255.88491
3.43474708,1320.14377
3.43665812,1365.64919
3.4395247,1438.24583
3.44143574,1489.75198
3.44430232,1572.07838
3.44716889,1661.0205
3.45003546,1757.24196
3.45290203,1861.48028
3.4557686,1974.55445
3.45863518,2097.37262
3.46150175,2230.93953
3.46436832,2376.3633
3.46723489,2534.86054
3.47010146,2707.75884
3.47201251,2831.73006
3.47392356,2963.18903
3.47679013,3175.4462
3.47870118,3327.70494
3.48061223,3489.14344
3.4834788,3749.59049
3.48538985,3936.10995
3.4873009,4133.45733
3.48921194,4342.02026
3.49207852,4676.5496
3.49456288,4987.90193
3.49685614,5292.89658
3.49914939,5614.22657
3.50220707,6066.01349
3.50526475,6539.94987
3.51367336,7881.41419
3.51673104,8339.74482
3.51902429,8654.09297
3.52055313,8844.43178
3.52208197,9016.11165
3.52361081,9166.42876
3.52513965,9292.87685
3.52666848,9393.24337
3.52819732,9465.7009
3.52972616,9508.88698
3.53117856,9522.03392
3.53278384,9504.67021
3.53431268,9457.30925
3.53584152,9380.75929
3.53737035,9276.42068
3.53889919,9146.15503
3.54042803,8992.20445
3.54195687,8817.09958
3.54348571,8623.56316
3.54577896,8304.87274
3.54883664,7841.6297
3.55724525,6491.56022
3.56183177,5786.43018
3.56488944,5346.97061
3.56794712,4936.40298
3.56947596,4742.46682
3.57138701,4510.78903
3.57425358,4185.41769
3.57712015,3885.82926
3.5790312,3699.80482
3.58189777,3440.19714
3.58380882,3279.36864
3.58571987,3127.75063
3.58763092,2984.8412
3.58954196,2850.14593
3.59145301,2723.18339
3.59336406,2603.48912
3.59527511,2490.61825
3.59718616,2384.14716
3.5990972,2283.67435
3.60100825,2188.82075
3.6029193,2099.22956
3.60483035,2014.56577
3.6067414,1934.51551
3.60960797,1822.45343
3.61151902,1752.69424
3.61343006,1686.60303
3.61725216,1564.51798
3.62107426,1454.53611
3.6229853,1403.62536
3.6268074,1309.15459
3.62871845,1265.30349
3.63254054,1183.71494
3.63445159,1145.74174
3.63827369,1074.90626
3.64018474,1041.85243
3.64400683,980.040066
3.64591788,951.125218
3.64973998,896.924463
3.65165102,871.510414
3.65547312,823.764279
3.65929522,779.780898
3.66120626,759.082043
3.66502836,720.058061
3.6707615,666.893392
3.6745836,634.642537
3.6784057,604.673287
3.68222779,576.78089
3.68796094,538.441779
3.69178303,514.983069
3.69560513,493.040475
3.69942722,472.489011
3.70324932,453.216072
3.70707142,435.12002
3.71089351,418.108949
3.71471561,402.09961
3.7185377,387.016465
3.7223598,372.790863
3.7261819,359.360307
3.73000399,346.667817
3.73764818,323.293365
3.74529238,302.302053
3.75293657,283.386597
3.75675866,274.624527
3.76440286,258.348287
3.77204705,243.569554
3.77969124,230.113927
3.78351334,223.834593
3.79115753,212.089117
3.79880172,201.329438
3.80644591,191.451045
3.81026801,186.813403
3.8217343,173.985256
3.83320058,162.600634
3.84466687,152.457794
3.85613316,143.389055
3.86759945,135.254163
3.87906574,127.935117
3.89053202,121.332091
3.90199831,115.360195
3.9134646,109.946901
3.92110879,106.61726
3.93508215,101.0479
3.94404137,97.795609
3.95932975,92.7556331
3.96697394,90.4544464
3.98226233,86.2431041
3.98990652,84.3166301
4.0051949,80.7861896
4.02048329,77.6444419
4.02812748,76.2056336
4.03959377,74.1990042
4.05106006,72.361498
4.06252634,70.6802067
4.07590368,68.9008789
4.09501416,66.6692581
4.11412464,64.7671393
4.13323512,63.1613631
4.1523456,61.8245136
4.18101132,60.2751887
4.2001218,59.5206045
4.22878752,58.7726097
4.247898,58.5154971
4.27656372,58.4752752
4.2956742,58.6730001
4.32408593,59.2956763
4.34505935,60.0095253
4.3663034,60.958052
4.38578579,62.0343844
4.40526819,63.3173212
4.42475058,64.8182922
4.44423298,66.5515538
4.46371537,68.5345271
4.48319777,70.7882291
4.50268016,73.3378171
4.52216256,76.213272
4.54164495,79.4502526
4.56112735,83.0911683
4.58060974,87.1865259
4.5981439,91.3105031
4.61762629,96.4452765
4.63516045,101.631981
4.65464284,108.117098
4.66438404,111.680864
4.67412524,115.481968
4.68386644,119.540171
4.69360763,123.877419
4.70334883,128.518133
4.71309003,133.489546
4.72283123,138.822098
4.73257242,144.549894
4.74231362,150.71124
4.75302894,158.04112
4.76277014,165.260022
4.77348545,173.880584
4.78420077,183.29607
4.79491609,193.604829
4.80465728,203.847268
4.81634672,217.377557
4.82803616,232.450922
4.8397256,249.307337
4.84557031,258.492125
4.85141503,268.235254
4.85725975,278.582346
4.86310447,289.583765
4.86894919,301.295215
4.87479391,313.778429
4.88063863,327.10196
4.88843158,346.306936
4.8942763,361.903287
4.90012102,378.630651
4.90596574,396.59982
4.9137587,422.707955
4.91975338,444.657334
4.92739637,475.304164
4.93518933,510.042857
4.94200817,543.751724
4.94882701,580.999831
4.95272349,604.064316
4.95661997,628.554819
4.96051644,654.589343
4.96441292,682.298117
4.9683094,711.825123
4.97220588,743.329831
4.97610236,776.98919
4.97999884,812.999916
4.98389532,851.581129
4.98974004,914.815391
4.99363652,960.957186
4.997533,1010.66115
5.00142947,1064.2924
5.00337771,1092.70735
5.00727419,1153.01727
5.01117067,1218.38521
5.01409303,1271.06454
5.01701539,1327.16607
5.02188599,1429.0758
5.02383423,1473.06606
5.02675659,1542.84688
5.02870483,1592.07233
5.03162719,1670.29373
5.03454955,1754.2046
5.03747191,1844.33649
5.03942014,1908.1693
5.0423425,2010.01267
5.04526486,2119.79945
5.04818722,2238.31137
5.05110958,2366.41774
5.05403194,2505.08505
5.0569543,2655.3873
5.05890254,2762.63624
5.06085078,2875.9682
5.06377314,3058.27981
5.06572138,3188.68196
5.06766962,3326.73345
5.07059198,3549.2877
5.07254022,3708.7824
5.07448846,3877.86321
5.07741081,4150.82405
5.07935905,4346.64421
5.08130729,4554.3319
5.08325553,4774.58076
5.08520377,5008.08876
5.08715201,5255.54571
5.08910025,5517.61687
5.09104849,5794.92199
5.09397085,6240.61319
5.09689321,6723.14817
5.10001039,7278.99458
5.10312758,7876.26101
5.10624476,8511.49766
5.10936194,9177.99232
5.1179342,11065.264
5.12105138,11710.4497
5.12338927,12153.1357
5.12494786,12421.29
5.12650645,12663.2586
5.12806504,12875.2375
5.12962363,13053.6994
5.13118223,13195.529
5.13274082,13298.1516
5.13429941,13359.6456
5.13578007,13378.8845
5.13741659,13355.3186
5.13897518,13289.5418
5.14053377,13182.7232
5.14209237,13036.8244
5.14365096,12854.4557
5.14520955,12638.7634
5.14676814,12393.3
5.14832673,12121.8887
5.15066462,11674.7913
5.1537818,11024.6359
5.16235406,9128.75434
5.16547124,8460.68022
5.16858842,7824.50226
5.17170561,7226.81604
5.17482279,6670.96635
5.17774515,6188.7256
5.18066751,5743.55147
5.18358987,5334.03113
5.18553811,5079.87893
5.18748635,4840.0581
5.18943459,4613.8795
5.19138283,4400.63949
5.19333107,4199.63407
5.1952793,4010.16956
5.19722754,3831.5704
5.19917578,3663.18468
5.20112402,3504.38793
5.20307226,3354.5854
5.20599462,3145.52122
5.20794286,3015.80662
5.2098911,2893.2501
5.21281346,2721.84812
5.2147617,2615.25686
5.21670994,2514.35339
5.2196323,2372.88256
5.22352878,2201.00355
5.22547702,2121.57995
5.2293735,1974.45314
5.23132174,1906.2785
5.23521821,1779.64672
5.23716645,1720.80831
5.24106293,1611.22819
5.24301117,1560.17736
5.24690765,1464.85711
5.24885589,1420.33614
5.25275237,1337.0041
5.25470061,1297.98743
5.25859709,1224.78715
5.26249357,1157.47688
5.26444181,1125.84183
5.26833829,1066.27422
5.27223476,1011.23953
5.274183,985.283969
5.27807948,936.248087
5.28197596,890.747524
5.28587244,848.459016
5.29171716,790.427259
5.29561364,754.975003
5.29951012,721.853333
5.3034066,690.866665
5.30730308,661.839113
5.31119955,634.612202
5.31509603,609.042887
5.31899251,585.001813
5.32288899,562.3718
5.32678547,541.046522
5.33263019,511.295967
5.33847491,483.975069
5.34626787,450.893605
5.35406082,421.17037
5.3579573,407.4301
5.36575026,381.954269
5.37354322,358.876463
5.38133618,337.909609
5.38523266,328.139594
5.39302561,309.88953
5.39692209,301.360533
5.40471505,285.38484
5.40861153,277.898707
5.41640449,263.841046
5.42030097,257.237473
5.4319904,238.95662
5.44367984,222.711681
5.45536928,208.218224
5.46705872,195.239795
5.47485167,187.330149
5.48654111,176.452921
5.49433407,169.795383
5.5060235,160.603931
5.51381646,154.957167
5.5255059,147.134483
5.53329886,142.313069
5.54888477,133.512894
5.56447069,125.706587
5.57226365,122.13389
5.58784956,115.57743
5.60343548,109.724026
5.61122844,107.033906
5.62681435,102.080176
5.64240027,97.6412944
5.65993443,93.1934229
5.67746858,89.2588249
5.69110626,86.5168156
5.71058865,83.0338121
5.73007105,80.0112171
5.74955344,77.4020319
5.75929464,76.2400492
5.77877704,74.1803449
5.79825943,72.4495112
5.81774182,71.0240627
5.83722422,69.8852571
5.85670662,69.0185587
5.87618901,68.4132353
5.8999285,68.0187262
5.91753702,67.965941
5.93827207,68.165421
5.95900713,68.6515314
5.97974218,69.4322378
6.00047724,70.5200381
6.02121229,71.9323744
6.04194735,73.6922183
6.0626824,75.8288625
6.08341746,78.3789673
6.10622602,81.7161101
6.12488757,84.9116482
6.1461799,89.1380441
6.16635768,93.7941368
6.18294572,98.1647196
6.19123975,100.554981
6.20782779,105.791492
6.22441583,111.707822
6.23270986,114.951818
6.2492979,122.084262
6.25759192,126.006318
6.26588594,130.190928
6.27417997,134.659613
6.286621,141.948163
6.29491502,147.23723
6.30735605,155.893744
6.31565008,162.198809
6.32809111,172.560468
6.33638513,180.140395
6.34882616,192.65686
6.3612672,206.745997
6.36541421,211.835969
6.37370823,222.671898
6.38407576,237.576807
6.39444328,254.204188
6.3985903,261.395823
6.40688432,276.812011
6.41103133,285.080049
6.41932535,302.857959
6.42347236,312.422629
6.43176638,333.057876
6.44006041,355.938689
6.44628092,374.769666
6.45250144,395.210451
6.45872196,417.445957
6.46494247,441.688044
6.46908948,459.08301
6.47323649,477.558418
6.47945701,507.495439
6.48360402,529.083696
6.48775103,552.108442
6.49397155,589.621167
6.49811856,616.825225
6.50226557,645.976967
6.50641258,677.261734
6.51055959,710.886813
6.5147066,747.084521
6.51885361,786.115782
6.52300063,828.274284
6.52714764,873.891323
6.53129465,923.341453
6.53544166,977.049075
6.53958867,1035.49616
6.54373568,1099.23128
6.54788269,1168.88013
6.5499562,1206.14185
6.55410321,1286.03426
6.55825022,1373.82857
6.56032372,1420.99816
6.56447074,1522.58081
6.56654424,1577.30427
6.5696545,1664.78564
6.57276476,1759.31289
6.57587502,1861.59353
6.57898527,1972.41395
6.58209553,2092.64755
6.58520579,2223.2629
6.58831605,2365.33177
6.59142631,2520.03638
6.59453657,2688.67496
6.59764682,2872.66441
6.59972033,3004.605
6.60179383,3144.52899
6.60490409,3370.48303
6.6069776,3532.58762
6.6090511,3704.48323
6.61216136,3981.83655
6.61423487,4180.48913
6.61630837,4390.69601
6.61838188,4612.87276
6.62149214,4969.28638
6.62418769,5301.05758
6.6275053,5738.37166
6.63082291,6206.06652
6.63414052,6700.37585
6.64575215,8512.32881
6.64824036,8875.88133
6.65072856,9211.58276
6.65238737,9414.93796
6.65404617,9598.4414
6.65570498,9759.20917
6.65736378,9894.5674
6.65902259,10002.1548
6.66068139,10080.02
6.6623402,10126.7069
6.66433076,10140.3584
6.6656578,10123.5707
6.66731661,10073.7827
6.66897541,9992.88532
6.67063422,9882.3661
6.67229302,9744.20426
6.67395183,9580.78475
6.67561063,9394.80036
6.67726944,9189.14897
6.67975764,8850.36831
6.68307525,8357.70898
6.69219867,6921.01674
6.69551628,6414.72358
6.69883389,5932.58533
6.7004927,5702.24066
6.70381031,5264.91164
6.70650586,4933.30359
6.70961612,4577.22758
6.71168963,4355.34502
6.71376313,4145.47539
6.71583664,3947.19421
6.7189469,3670.44575
6.7210204,3498.97619
6.72309391,3337.30988
6.72620416,3112.02719
6.72827767,2972.55513
6.73035118,2841.06678
6.73346143,2657.75153
6.73657169,2489.77716
6.73968195,2335.72253
6.74279221,2194.28643
6.74590247,2064.28459
6.74901273,1944.64393
6.75108623,1870.157
6.75419649,1765.67846
6.75730675,1669.18459
6.76145376,1551.69095
6.76560077,1445.56216
6.76767427,1396.33591
6.77182129,1304.81122
6.7759683,1221.64084
6.7780418,1182.89037
6.78218881,1110.53059
6.78633582,1044.4005
6.79048284,983.832944
6.79462985,928.243823
6.79877686,877.120619
6.80292387,830.012643
6.80707088,786.522683
6.81121789,746.299871
6.8153649,709.033579
6.81951191,674.448198
6.82365892,642.298646
6.82780593,612.366527
6.83195295,584.456804
6.83817346,546.007421
6.84232047,522.428974
6.84646748,500.33636
6.852688,469.723737
6.85890852,441.828968
6.86512903,416.344134
6.87134955,393.003086
6.87757007,371.574931
6.88379058,351.858646
6.88793759,339.577845
6.89623162,316.880945
6.90037863,306.382959
6.90867265,286.907369
6.91281966,277.865967
6.92111368,261.034496
6.92526069,253.194169
6.93355471,238.552318
6.93770173,231.710794
6.94599575,218.896977
6.95428977,207.136829
6.95843678,201.616357
6.9667308,191.231661
6.97502483,181.647361
6.97917184,177.130022
6.98746586,168.599727
6.99990689,156.945554
7.00820091,149.854605
7.01649493,143.248943
7.02478896,137.085404
7.03308298,131.325502
7.041377,125.93483
7.04967102,120.882559
7.05796504,116.141003
7.06625907,111.68524
7.07455309,107.49279
7.08284711,103.543337
7.09114113,99.8184808
7.10358217,94.6162162
7.12017021,88.3224344
7.13675825,82.6713681
7.1533463,77.5784362
7.16993434,72.9725151
7.17822836,70.8330146
7.19481641,66.8477068
7.20933095,63.6515897
7.22177198,61.1062725
7.23628652,58.3419226
7.25494807,55.0798408
7.26531559,53.3961516
7.28605065,50.2756164
7.29641818,48.8282128
7.31715323,46.1358181
7.33788829,43.6863175
7.34825581,42.5436608
7.36899087,40.4068219
7.38972592,38.449568
7.40009345,37.5321091
7.42082851,35.8086297
7.45193109,33.4735333
7.47266614,32.064191
7.4934012,30.7594104
7.51413625,29.5492933
7.53487131,28.4251016
7.55560636,27.3790985
7.57634142,26.4044143
7.59707647,25.4949329
7.61781153,24.6451947
7.63854658,23.8503143
7.66717297,22.8350321
7.68790802,22.1539255
7.7214868,21.1380794
7.74222186,20.5598831
7.78369197,19.503916
