energy [eV],cross section [b]
1e-05,6324.51186
1.08823966e-05,6062.70747
1.20589255e-05,5759.39795
1.30797442e-05,5530.11219
1.41697738e-05,5313.17877
1.52598035e-05,5119.92664
1.61574834e-05,4975.68938
1.70551634e-05,4842.99578
1.84016833e-05,4662.4708
1.99594325e-05,4476.86631
2.10683418e-05,4357.48003
2.32861602e-05,4144.82662
2.46560022e-05,4028.06898
2.60258442e-05,3920.65598
2.87655281e-05,3729.32999
3.13037887e-05,3574.98275
3.46881361e-05,3396.16778
3.76245749e-05,3260.99461
4.07601028e-05,3133.10489
4.38956307e-05,3019.17726
4.77689664e-05,2894.24039
5.03511902e-05,2819.08493
5.42245259e-05,2716.58572
5.74143619e-05,2640.08452
6.21991158e-05,2536.56623
6.89540812e-05,2409.19937
7.2894504e-05,2343.22368
7.68349267e-05,2282.39186
8.51793744e-05,2167.80463
9.24808149e-05,2080.54506
0.000102216069,1979.08363
0.000111235581,1897.23501
0.000120255092,1824.78001
0.000129982051,1755.25949
0.000137409955,1707.22118
0.000144837858,1662.92899
0.000155979713,1602.5238
0.000165155444,1557.44134
0.000178919042,1496.43984
0.000198350056,1421.38879
0.00020968489,1382.5145
0.000221019725,1346.67241
0.000245022969,1279.16145
0.000266025948,1227.75479
0.000294029921,1167.98619
0.000319216715,1121.10033
0.000348550144,1073.04354
0.000373900236,1036.15871
0.000395266992,1007.87006
0.000416633747,981.789228
0.000448683881,946.223555
0.000475078358,919.682205
0.000514670073,883.772696
0.000570564412,839.599528
0.000603169662,816.722438
0.000635774911,795.632011
0.000704821512,755.913315
0.000765237691,725.675702
0.000845792596,690.527664
0.000920425051,662.183598
0.000995057506,637.10083
0.00107554378,613.042206
0.00113700638,596.423091
0.00122920028,573.880948
0.00132862543,552.261253
0.00140455054,537.328192
0.00148047565,523.564447
0.00159436331,504.801762
0.00168815403,490.80526
0.00178194475,477.935047
0.00196952619,455.02648
0.00214331652,436.562559
0.00237503696,415.193611
0.00257608987,399.057939
0.00279077407,383.807985
0.00300545827,370.237972
0.00327065889,355.375092
0.00353585952,342.235872
0.00382186123,329.646677
0.00404026381,320.959028
0.00425866639,312.957974
0.00458627025,302.06173
0.00485606422,293.942332
0.00512585818,286.48374
0.00566544611,273.227483
0.00599872415,265.96687
0.0063320022,259.299788
0.00699855828,247.457286
0.00750324486,239.587683
0.00826465457,229.146622
0.0088996473,221.51592
0.00966251092,213.396573
0.0104253745,206.218824
0.011307909,198.876246
0.0119361555,194.17564
0.0125644021,189.849433
0.0135665893,183.613322
0.0151187425,175.277927
0.016296955,169.813495
0.0172556468,165.81632
0.0191730306,158.811934
0.02075852,153.833296
0.0228136765,148.246223
0.0250844165,142.980035
0.02757651,138.06311
0.0299345872,134.071599
0.0325575565,130.237519
0.0343945,127.867544
0.0379493505,123.883976
0.04121249,120.799662
0.0440457708,118.481411
0.0468790516,116.442003
0.0497349775,114.626073
0.0531439725,112.725877
0.0563792165,111.151058
0.0597882115,109.695648
0.065075455,107.781708
0.0700104808,106.301391
0.07530244,104.974164
0.08212043,103.571719
0.0883694656,102.514564
0.099165405,101.02837
0.133255355,97.0250561
0.15030033,94.4251988
0.15711832,93.1676366
0.166581067,91.1922971
0.180981285,87.6720262
0.194617265,83.8185874
0.208253245,79.5690318
0.249161185,65.9080475
0.26620616,60.4600155
0.27984214,56.4082255
0.28666013,54.5057198
0.30029611,50.9707128
0.3071141,49.3434658
0.32075008,46.3747375
0.330977065,44.3973371
0.34120405,42.6296256
0.349726537,41.3129081
0.358249025,40.1346034
0.366771513,39.0910727
0.375294,38.1787935
0.381598671,37.5864705
0.392338975,36.7355594
0.400861462,36.1996584
0.40938395,35.7853605
0.417906438,35.4919868
0.426428925,35.3197602
0.432069063,35.2729515
0.4377092,35.2803334
0.445197498,35.3753521
0.453434532,35.595137
0.461671568,35.9402538
0.469908603,36.4167506
0.479179237,37.119674
0.486382673,37.7958477
0.494619708,38.718913
0.502856743,39.8147681
0.50697526,40.4323429
0.515212295,41.8179948
0.52344933,43.4215139
0.527567848,44.312225
0.535804883,46.288119
0.544041917,48.5484599
0.552278953,51.1274659
0.55639747,52.5485163
0.564634505,55.6806838
0.570812281,58.3070126
0.574930799,60.2018933
0.579049316,62.2199296
0.583167834,64.3682472
0.587286351,66.6541843
0.594757761,71.1766699
0.599641904,74.4124984
0.603760421,77.3232776
0.607878939,80.4077996
0.614056715,85.3727423
0.618175233,88.9143501
0.62229375,92.6439224
0.625588564,95.7627324
0.632178192,102.352589
0.642062634,113.041486
0.666773739,141.682599
0.673363367,148.737586
0.679952995,154.949592
0.684895216,158.835846
0.68819003,160.975689
0.691484844,162.707976
0.694779658,163.998337
0.698074472,164.819112
0.701369286,165.1506
0.7046641,164.982014
0.707958914,164.312033
0.712901135,162.38757
0.716195949,160.520287
0.719490763,158.21922
0.724432984,154.035622
0.727727798,150.820782
0.7312181,147.10342
0.739259647,137.622453
0.760675938,110.221798
0.767265566,102.139314
0.77056038,98.2537059
0.777150008,90.8433968
0.780444822,87.3306859
0.785387043,82.3109015
0.789093709,78.743688
0.795271485,73.1705347
0.801449261,68.0485096
0.807627038,63.3544823
0.813804814,59.0607893
0.81998259,55.1376758
0.826160366,51.5549847
0.832338143,48.2832732
0.838515919,45.29451
0.844693695,42.5624736
0.848812212,40.8716963
0.854989989,38.514727
0.859108506,37.0538844
0.865286283,35.0141191
0.8694048,33.7476615
0.877641835,31.4175169
0.88587887,29.329527
0.889997388,28.3668438
0.898234423,26.5873732
0.906933957,24.8974359
0.914708492,23.5322895
0.91882701,22.8591082
0.927064045,21.6067835
0.93530108,20.4679522
0.943538115,19.4299829
0.95177515,18.4818753
0.960012185,17.6140289
0.96824922,16.8180464
0.976486255,16.0865659
0.98472329,15.4131186
0.992960325,14.7920071
1.00119736,14.2182018
1.00943439,13.6872526
1.01767143,13.1952133
1.02590847,12.7385768
1.0341455,12.3142195
1.04238253,11.9193537
1.05061957,11.5514861
1.0588566,11.2083825
1.06709364,10.8880371
1.08356771,10.3085821
1.10004178,9.80070952
1.11651585,9.35427625
1.13298992,8.9609407
1.14946399,8.6138038
1.16593806,8.30713027
1.18241213,8.03613086
1.20712324,7.68791684
1.22359731,7.4899072
1.24007137,7.31608704
1.25654544,7.1642525
1.28125655,6.97374171
1.29773062,6.86937874
1.32244173,6.74381389
1.3389158,6.67939102
1.3636269,6.60989909
1.38137346,6.57923314
1.40084184,6.56351113
1.43004441,6.57449478
1.45924698,6.62702793
1.48844955,6.72230371
1.51765212,6.86277309
1.54685469,7.05225239
1.57605726,7.29609876
1.60525983,7.6014557
1.62472821,7.84366713
1.64419659,8.12060684
1.65393078,8.27328727
1.67339916,8.60976081
1.69286754,8.99175586
1.71233592,9.4246742
1.7318043,9.91454027
1.75127268,10.4679242
1.76100687,10.7705948
1.78047525,11.4322642
1.79994363,12.1745728
1.81941201,13.0031207
1.83693355,13.8252887
1.86029561,15.0328453
1.88365766,16.3540336
1.93038178,19.1666973
1.95374383,20.495805
1.96542486,21.0905783
1.97710589,21.616748
1.98878692,22.0584259
1.99657427,22.2989751
2.00436162,22.4924148
2.01214897,22.6362236
2.02538747,22.7628139
2.0394047,22.7351523
2.04719206,22.6510028
2.05497941,22.5213011
2.06666044,22.2499377
2.08223514,21.769794
2.10170352,21.0397734
2.14064028,19.4614877
2.15621498,18.8855105
2.17178969,18.3816207
2.18736439,17.9687447
2.2029391,17.6613444
2.218776,17.468499
2.2297396,17.4107473
2.2363104,17.40718
2.249452,17.472275
2.2625936,17.6366265
2.2757352,17.9028515
2.28756264,18.2303757
2.29807592,18.5905171
2.3085892,19.0128982
2.32435912,19.7512739
2.3348724,20.3000695
2.36641224,22.043172
2.37955384,22.7067642
2.3874388,23.0546598
2.39532376,23.3523328
2.40846536,23.7159449
2.41635032,23.847556
2.42423528,23.9138744
2.43212024,23.9187641
2.4400052,23.8693354
2.4531468,23.6934812
2.4925716,22.9745725
2.50308488,22.8571436
2.51359816,22.8073166
2.52411144,22.8365466
2.53462472,22.9525504
2.54250968,23.0993871
2.5517088,23.3370518
2.5593305,23.5883777
2.56964117,24.0061218
2.58252667,24.6501666
2.59541218,25.421413
2.60829769,26.3062904
2.6211832,27.2855985
2.6630611,30.7676975
2.68238936,32.2637485
2.69205349,32.9176842
2.70397259,33.6038439
2.71460313,34.0826625
2.72426726,34.3954963
2.73715277,34.6176765
2.74945673,34.6154498
2.76296889,34.3754816
2.77648104,33.9041794
2.78999319,33.2321388
2.80350534,32.4007724
2.81701749,31.4588747
2.84741984,29.2025658
2.86093199,28.2492523
2.87444414,27.3831101
2.88795629,26.6345648
2.90146844,26.0271133
2.9149806,25.578417
2.92849275,25.3015577
2.9420049,25.2061373
2.95508214,25.2930222
2.96576338,25.4976293
2.97644462,25.82335
2.98926211,26.3728723
3.00065544,27.0023408
3.0063521,27.3643776
3.01774542,28.1753399
3.03483541,29.5725185
3.06901538,32.6034666
3.08325703,33.7023357
3.09465036,34.3876224
3.10319535,34.7468401
3.11174034,34.9480735
3.12028534,34.974569
3.125982,34.8901609
3.13167866,34.7229505
3.13737532,34.4738394
3.14307199,34.1453578
3.14876865,33.7415418
3.15446531,33.2677473
3.16585863,32.1367926
3.17440363,31.1579469
3.18294862,30.0971825
3.22282525,24.7823998
3.23421858,23.3265647
3.2456119,21.9487445
3.25700523,20.661326
3.26555022,19.758774
3.27551938,18.7750407
3.2826402,18.1175302
3.28976103,17.4967252
3.29688186,16.911487
3.3075631,16.0973413
3.31824434,15.3551123
3.3324435,14.4705105
3.34417115,13.8194739
3.35045289,13.4977259
3.36301636,12.9056586
3.37557984,12.3756863
3.38814331,11.9005521
3.40070679,11.4735935
3.41327026,11.0887226
3.42583373,10.7403944
3.44467895,10.2755259
3.45724242,9.99753112
3.47608763,9.61862999
3.49493284,9.27537954
3.51377805,8.95827545
3.55775021,8.28079801
3.61428584,7.47280282
3.66453974,6.79463259
3.70223016,6.3202242
3.73992058,5.88513844
3.76504753,5.62006407
3.79017448,5.37606802
3.81530143,5.15330923
3.84042838,4.95140918
3.86869619,4.74824635
3.90010488,4.55057577
3.93151356,4.38028095
3.95610669,4.2645666
3.97862659,4.17119589
3.99433093,4.1127839
4.02573962,4.01141497
4.0571483,3.92921803
4.08855699,3.86468952
4.10426133,3.83864843
4.13567002,3.7983368
4.1670787,3.77298017
4.19848738,3.76187255
4.22989607,3.7644992
4.2770091,3.79349185
4.3051295,3.82494564
4.345272,3.88820453
4.36796206,3.93362184
4.41334219,4.04588547
4.45872231,4.18768761
4.50410244,4.36041244
4.5267925,4.45882903
4.57217263,4.68059633
4.59486269,4.80418591
4.62662878,4.99155114
4.6720089,5.28775007
4.708313,5.54744997
4.76276915,5.9686608
4.87168145,6.85428829
4.91706157,7.19255239
4.95336568,7.42542926
4.98059375,7.56919739
5.00782183,7.68075047
5.0350499,7.75596855
5.06681599,7.79426255
5.09858208,7.77808925
5.11673413,7.74502755
5.13488618,7.69563155
5.17119028,7.55275704
5.19841835,7.41314307
5.22564643,7.25239762
5.34363475,6.4634513
5.3980909,6.13187536
5.434395,5.94562486
5.45254705,5.86568926
5.47977512,5.76460943
5.49792718,5.71097955
5.51607923,5.66936944
5.53782463,5.63669158
5.55383946,5.62561005
5.57213925,5.6276563
5.59043904,5.64684
5.60873883,5.6849623
5.62703862,5.74420632
5.64533841,5.82724484
5.65448831,5.87868934
5.67278809,6.00385165
5.69108788,6.16264357
5.70023778,6.25640233
5.71853757,6.47694974
5.73226241,6.6753881
5.74141231,6.82573814
5.7505622,6.99225729
5.7597121,7.17665255
5.77343694,7.4910974
5.78258684,7.72932243
5.79173673,7.99355575
5.80088662,8.28693037
5.81003652,8.61304857
5.81918641,8.97605704
5.82833631,9.38073264
5.8374862,9.83257887
5.8466361,10.3379321
5.85578599,10.9040743
5.86493589,11.5393462
5.86951084,11.8858272
5.87866073,12.6429898
5.88781063,13.4953401
5.89238557,13.961086
5.899248,14.7138303
5.90382294,15.2542612
5.90839789,15.8276222
5.91297284,16.4356671
5.91983526,17.4164904
5.92441021,18.1185273
5.93127263,19.2472278
5.93813505,20.4695985
5.94545497,21.8779759
5.95277488,23.3914817
5.9600948,25.0012573
5.96741471,26.6901631
5.98754448,31.4710038
5.9948644,33.1044382
6.00035434,34.2247092
6.00767425,35.5148465
6.01133421,36.0505425
6.01499417,36.5011953
6.01865413,36.8589356
6.02231408,37.1172691
6.02597404,37.2713612
6.029451,37.3184816
6.03329396,37.2570246
6.03695392,37.0887937
6.04061387,36.8167106
6.04427383,36.4457896
6.04793379,35.9826875
6.05159375,35.435415
6.05891366,34.1251877
6.0644036,32.9928302
6.07172352,31.3474897
6.09185329,26.5576986
6.0991732,24.8730181
6.10649312,23.2706404
6.11015308,22.5058572
6.11747299,21.0554323
6.12342042,19.9572391
6.13028284,18.7798647
6.13485779,18.0473449
6.13943274,17.3554234
6.14400769,16.7026652
6.14858263,16.0874581
6.15315758,15.5080802
6.15773253,14.9627522
6.16230748,14.4496789
6.1691699,13.7366616
6.17603232,13.0863896
6.18518221,12.3074638
6.19433211,11.618239
6.203482,11.0079181
6.2126319,10.4669603
6.2217818,9.98700666
6.23093169,9.56077289
6.24008158,9.18193268
6.24923148,8.8450018
6.25838137,8.54522978
6.26753127,8.27850175
6.27668116,8.04125159
6.28583106,7.83038593
6.29498095,7.64321847
6.30413085,7.47741335
6.31328075,7.33093676
6.32243064,7.20201545
6.33158053,7.08910142
6.34988032,6.9060526
6.36818011,6.77286913
6.37733001,6.72277121
6.3956298,6.65206586
6.41392959,6.61698547
6.42307948,6.61167366
6.44137928,6.6237374
6.45967906,6.66422715
6.48712875,6.77477175
6.51352177,6.93462348
6.540994,7.15515602
6.5646241,7.38880923
6.5882542,7.66359658
6.6118843,7.98040185
6.6276377,8.21549493
6.6433911,8.47010141
6.6670212,8.88927487
6.6827746,9.19389447
6.698528,9.51874724
6.72373344,10.0801816
6.73633616,10.3796216
6.7615416,11.0135673
6.79934976,12.038852
6.87496608,14.1839963
6.90017152,14.8434664
6.92537696,15.423715
6.93797968,15.6734006
6.9505824,15.890588
6.96318512,16.0714822
6.97578784,16.2127511
6.98839056,16.3116641
7.00099328,16.3662124
7.013596,16.3752019
7.02619872,16.3383108
7.0451028,16.1984268
7.06400688,15.9622832
7.08291096,15.6391552
7.1081164,15.0943209
7.12702048,14.6185199
7.15222592,13.9224158
7.22784224,11.700931
7.25304768,10.9925794
7.27825312,10.3244662
7.30345856,9.7038965
7.328664,9.13473579
7.3522941,8.64909456
7.3759242,8.20966743
7.3916776,7.9419158
7.4153077,7.57705688
7.4310611,7.35765355
7.4546912,7.06314048
7.47422397,6.85013015
7.49936191,6.61538392
7.51774374,6.47126131
7.53612557,6.35017668
7.5545074,6.25215475
7.57288923,6.17744762
7.59127106,6.12655505
7.60965289,6.10024104
7.62803472,6.09954337
7.64641655,6.12577051
7.66479838,6.18047655
7.68318021,6.26539919
7.69237113,6.31975684
7.70156204,6.38233851
7.71994387,6.53294465
7.7383257,6.71837239
7.75303116,6.89192674
7.76773663,7.08717537
7.78244209,7.3023663
7.79714756,7.53433065
7.84494031,8.32894687
7.85964578,8.54991155
7.87435124,8.73760717
7.88905671,8.87830459
7.90376217,8.95980035
7.91846763,8.97322965
7.92949673,8.93599622
7.94052583,8.8584331
7.95155493,8.74262743
7.96258403,8.59219235
7.97728949,8.34613008
7.98831859,8.13471848
8.00302405,7.8280721
8.04714044,6.85357543
8.06184591,6.54094131
8.0839041,6.10220278
8.09860957,5.833383
8.11515321,5.55493891
8.13353505,5.27510336
8.14272596,5.14644024
8.16110779,4.91033708
8.17029871,4.80229883
8.18868053,4.60466854
8.19787145,4.51444016
8.21625328,4.34961188
8.2254442,4.27442442
8.24382603,4.13712977
8.27139877,3.96018625
8.29897151,3.81286516
8.32654426,3.69029653
8.34492609,3.62034436
8.36330792,3.55863125
8.38168975,3.50430228
8.41845341,3.41492055
8.45521707,3.34733388
8.49198073,3.29783633
8.52874439,3.26358286
8.56550805,3.24236964
8.60227171,3.23247299
8.63903537,3.23253063
8.67579903,3.24145363
8.73094452,3.26957581
8.76770818,3.29713656
8.82285367,3.35029008
8.89263908,3.43568819
8.93184294,3.49158859
9.01025066,3.61826565
9.12786224,3.83808942
9.3630854,4.32243746
9.42189119,4.43655577
9.48069698,4.54122736
9.53950277,4.63301667
9.59830856,4.70875789
9.65711435,4.76581068
9.71592014,4.80230541
9.77472593,4.81733861
9.83353172,4.81108368
9.89233751,4.78479557
9.9511433,4.74070825
10.0099491,4.68184419
10.0687549,4.61177022
10.2647742,4.34672271
10.3431819,4.24870277
10.4215896,4.16654836
10.4999973,4.10643844
10.5588031,4.07913003
10.6176089,4.06947729
10.6764147,4.07966276
10.7352205,4.11200327
10.7819288,4.1551816
10.8052829,4.1830748
10.8400209,4.23289919
10.879359,4.30219879
10.9186971,4.38634306
10.9580352,4.48672005
10.9973734,4.60492812
11.0367115,4.74281269
11.0760496,4.90250698
11.0957186,4.99128907
11.1350568,5.18843852
11.1743949,5.41429148
11.213733,5.67235694
11.2530711,5.96664023
11.2924092,6.30167094
11.3317473,6.68250078
11.3710854,7.11464754
11.4055189,7.53962169
11.4399271,8.0119714
11.4595962,8.30484736
11.4792653,8.61514394
11.4989343,8.94338615
11.5245041,9.3975547
11.5559746,9.99957889
11.5874451,10.6482789
11.6189156,11.3405521
11.6503861,12.0702517
11.7684004,14.9225947
11.7998709,15.6276774
11.8234738,16.1149663
11.8628119,16.826826
11.8982162,17.3501733
11.9257529,17.6862235
11.9965615,18.4114545
12.028032,18.7905485
12.0516348,19.1676041
12.0752377,19.6762867
12.090973,20.1176544
12.0988406,20.3769198
12.1145758,20.9884666
12.1303111,21.7492915
12.1431575,22.5064084
12.1509118,23.0334609
12.158666,23.6208072
12.1664203,24.2756064
12.1741746,25.00599
12.1819289,25.821222
12.1896831,26.7318856
12.1974374,27.7500997
12.2051917,28.889768
12.2090688,29.51005
12.2168231,30.8625845
12.2245774,32.3811009
12.2323316,34.0882212
12.2400859,36.009879
12.2478402,38.1756846
12.2555945,40.6192227
12.2633487,43.3781922
12.2691644,45.6793427
12.2730416,47.3342571
12.2769187,49.0925402
12.2807959,50.9600461
12.284673,52.9426173
12.2885501,55.0459654
12.2924273,57.2755157
12.2963044,59.6362089
12.3021201,63.4320684
12.3075481,67.2578213
12.3122007,70.7557293
12.3184041,75.725138
12.3246075,81.016181
12.3308109,86.5728918
12.3478703,102.332126
12.3540738,107.727874
12.3587263,111.433216
12.3649297,115.707678
12.3680315,117.486318
12.3711332,118.985757
12.3742349,120.179909
12.3773366,121.047203
12.3804383,121.571529
12.38354,121.74297
12.3881926,121.333209
12.3912943,120.623053
12.394396,119.577981
12.3974977,118.217202
12.4005994,116.564909
12.4037011,114.649256
12.4068028,112.50124
12.4114554,108.915278
12.4176588,103.628585
12.4362691,86.5230624
12.4455742,78.3276591
12.4517776,73.2298816
12.457981,68.4769816
12.4649599,63.563262
12.4707756,59.8190157
12.4765913,56.3836938
12.482407,53.2425176
12.4882227,50.377668
12.4940384,47.7698907
12.4998541,45.3996115
12.5037313,43.9418777
12.509547,41.9252937
12.5153627,40.0972515
12.523117,37.9252643
12.5308712,36.024924
12.5347484,35.1668876
12.5425026,33.6177989
12.5502569,32.2710056
12.5541341,31.6666342
12.5618883,30.5839586
12.5696426,29.6553972
12.5735197,29.2442457
12.581274,28.5200765
12.5851511,28.2041757
12.5929054,27.6583477
12.60476,27.0284871
12.6131673,26.7191248
12.6200084,26.5452781
12.6321244,26.3975534
12.6402017,26.4061104
12.648279,26.4954712
12.6563563,26.6619755
12.6644336,26.9021938
12.6708955,27.1451741
12.6838192,27.7589124
12.6902811,28.1256585
12.7032048,28.967007
12.7225903,30.4515673
12.7645924,34.0042012
12.7775161,34.9603695
12.7872089,35.5596816
12.7969017,36.0251532
12.8033635,36.2479494
12.8098254,36.3929502
12.8162872,36.4549556
12.8227491,36.430317
12.8292109,36.3170931
12.8356728,36.115129
12.8421346,35.8260536
12.8518274,35.2368065
12.8615202,34.476861
12.871213,33.5696121
12.8809058,32.5422373
12.8970604,30.6409669
12.9358315,25.761593
12.9552171,23.4420647
12.9681408,21.9994406
12.9746026,21.3137017
12.9842954,20.3315121
12.991565,19.6318597
12.9996423,18.8915383
13.0077196,18.1896536
13.015797,17.525253
13.0238743,16.8971219
13.0319516,16.3038639
13.0400289,15.7439643
13.0521449,14.9631955
13.0682995,14.0240277
13.0844542,13.1897727
13.1006088,12.448631
13.1086861,12.1095707
13.1248407,11.4882728
13.1409954,10.9352998
13.15715,10.4426718
13.1652273,10.2167707
13.181382,9.80186622
13.1975366,9.43152689
13.2136912,9.10084071
13.2379232,8.67000284
13.2540778,8.42103807
13.2702325,8.19913857
13.2863871,8.00171767
13.310619,7.74665173
13.3267737,7.60123342
13.3510056,7.41608285
13.3671603,7.31269515
13.3913922,7.18489423
13.4237015,7.06068494
13.4398561,7.01671925
13.4721654,6.96219748
13.5044747,6.94936911
13.5206293,6.95778608
13.5529386,7.00321313
13.5690932,7.03995852
13.6014025,7.1412193
13.6337117,7.27964388
13.6522781,7.37627079
13.6882017,7.59971915
13.7061635,7.73011556
13.742087,8.03028373
13.7780106,8.38639603
13.7959724,8.58696593
13.8318959,9.0367893
13.8498577,9.28771251
13.8768004,9.69923191
