energy [eV],cross section [b]
1e-05,23.378333878786705
1.0911612075367828e-05,22.38046255969449
1.151935345894638e-05,21.782084506341054
1.2127094842524931e-05,21.2292708210687
1.3186446753618348e-05,20.35867575981815
1.4319668582574557e-05,19.53650558594816
1.5452890411530766e-05,18.806520757648894
1.6861594561379466e-05,18.003789960548684
1.7800730661278604e-05,17.5224287844273
1.9209434811127304e-05,16.867699811251995
2.0376871660114953e-05,16.377377180236095
2.212802693359643e-05,15.715987855844936
2.329546378258408e-05,15.31712649677022
2.4604800568740596e-05,14.904005360351723
2.6056037292065983e-05,14.483004851245191
2.750727401539137e-05,14.095776981201446
2.8958510738716757e-05,13.738035110935666
3.0586142784868884e-05,13.367503523786437
3.32921838383372e-05,12.812722007185807
3.690023857629495e-05,12.170202427326059
4.026410888330537e-05,11.650731588374116
4.362797919031579e-05,11.192563016862378
4.7264431256601055e-05,10.753373261135389
5.0052174979824346e-05,10.449616229816463
5.283991870304765e-05,10.1702265345012
5.70215342878826e-05,9.790211320566426
6.048696890207156e-05,9.50562011634088
6.568512082335499e-05,9.121738920421581
6.915055543754394e-05,8.890233188233543
7.303720765715856e-05,8.650450786987554
7.949901239471891e-05,8.291434475039221
8.811475204479939e-05,7.875639962303454
9.614739924300741e-05,7.53947397472934
0.00010150249737514609,7.337890398150597
0.00010685759550728478,7.1516566081109705
0.00011619204860470281,6.85836733765889
0.00012617740465172586,6.581391384671712
0.0001361627606987489,6.33547097922338
0.00014443793515664217,6.151302506434139
0.00015271310961453545,5.9823139543369095
0.0001651258713013754,5.753064744680218
0.00017955029937797285,5.517128887014111
0.00018983714022562367,5.365561270606825
0.0002104108219209253,5.096485823216314
0.0002295921265260437,4.878940580406207
0.00024237966292945596,4.748488390827293
0.00025516719933286824,4.627969526405929
0.0002695090387495547,4.503141812821492
0.00028540518117951537,4.375933111994
0.0003092493948244564,4.203839602853762
0.0003350257571881867,4.038874409306818
0.00036466641698949527,3.871241598698506
0.00039430707679080385,3.7228847197784414
0.0004287514314182,3.5702003440558316
0.0004533155661118265,3.472114164924908
0.0004901617681522663,3.339050568423498
0.0005177116310869158,3.2489838781916527
0.0005482472222625882,3.157199111455189
0.0005787828134382606,3.0727770685242373
0.0006093184046139328,2.9947832316560565
0.0006435655442755036,2.9140007693684318
0.000681524232422973,2.831677274835762
0.0007194829205704424,2.755957490478278
0.0007574416087179116,2.6860032382015335
0.0008236072672005434,2.575835676890776
0.0008943867388138892,2.4717952378470045
0.0009651662104272351,2.379419628410054
0.001053151927643482,2.2778376225102406
0.001141137644859729,2.1882424560402813
0.0012362530369447963,2.102357854749118
0.001309169531493268,2.0429569629728865
0.0013820860260417402,1.9883208175364808
0.001491460767864448,1.9140061684130154
0.0015821030109259549,1.8583518192791133
0.0017180663755182151,1.783279614774622
0.001808708618579722,1.7380056176910372
0.0019103682700830015,1.6911125764266952
0.00207938386000058,1.620900652395253
0.0023047379798906845,1.5395832265063576
0.0025148406771934037,1.4738374676734582
0.0026549091420618827,1.4344120345612716
0.0027949776069303616,1.397988201327359
0.003039130465287038,1.3406252773699516
0.0033003084041706926,1.2864516776569541
0.0035614863430543475,1.2383510120090433
0.0037779326068267437,1.2023278531460633
0.00399437887059914,1.1692731842372168
0.004319048266257735,1.1244301931523881
0.004696335002642507,1.0782776901747761
0.0049653986071410815,1.0486279241202645
0.00550352581613823,0.9959891810480515
0.006005233875247247,0.9534290725936333
0.006339705914653257,0.9279066418049584
0.006674177954059268,0.904326869393082
0.007049304493464668,0.8799032327336025
0.007465085532869458,0.8550127937915292
0.008088757091976644,0.8213382521052095
0.008762966119914548,0.7890565469637426
0.009538250085513893,0.7562505522155873
0.010313534051113238,0.72721473299313
0.010893212981502084,0.7075600059226091
0.011535714865213542,0.687529196579618
0.012499467690780733,0.6604285453927049
0.013541315513099648,0.6344479160069046
0.014340007390314553,0.616477277440797
0.015138699267529462,0.5999469356666631
0.015937391144744368,0.5846741126645678
0.01683316264326158,0.5688539437754053
0.017826013763081107,0.5527305367951917
0.019315290442810388,0.5309154664538561
0.02030814156262991,0.5177234758647892
0.02154235136774809,0.5026120373228541
0.023393666075425354,0.48222534814092216
0.0253,0.4636137223708937
0.02758073072609399,0.44393031721153925
0.029861461452187984,0.4265434915374053
0.03233555404608371,0.4097995623800377
0.03424276493241649,0.3981480564634571
0.03710358126191568,0.3823817597030334
0.04019621578798205,0.36726415968681897
0.04256706306744922,0.3568055648299032
0.04493791034691639,0.34718373351200377
0.047308757626383556,0.33829251718036024
0.04996777730702609,0.32908117965786066
0.052914969388844005,0.31969160415912784
0.05733575751157087,0.3069844909378312
0.06028294959338878,0.2992984474807603
0.063946593912597,0.2904922403305527
0.06944206039140932,0.2786084653873058
0.07493752687022165,0.2680515772844934
0.08176892230953112,0.2564358266372214
0.08860031774884058,0.24618415980590985
0.09598527608362448,0.2363505203748998
0.10164666550077964,0.2295450562450727
0.11013874962651235,0.22033224002364482
0.11931896587971685,0.2114937319024271
0.12635661955181554,0.20537609752421165
0.13339427322391428,0.19974553595606476
0.14043192689601297,0.1945403298805332
0.14832499524407727,0.18914532385143926
0.1570734782681072,0.18364322430533886
0.17019620280415204,0.17619237079620112
0.17894468582818193,0.17168274981916312
0.18981989492310666,0.16651298101558154
0.20613270856549376,0.15953111309773438
0.22244552220788086,0.15332308874692863
0.2427239246235015,0.14648545944301963
0.2562428595672486,0.14237916037122297
0.27652126198286925,0.13678583946731102
0.2933266034175048,0.13259037658702888
0.3185346155694583,0.12692120594161563
0.3437426277214117,0.121877104945679
0.36463328973804543,0.11809242496467623
0.38552395175467924,0.1146138082894265
0.406414613771313,0.1114016047513608
0.42730527578794675,0.10842302166839035
0.4532743857397249,0.10500519357789471
0.49222805066739206,0.10038349642890525
0.5181971606191702,0.09758942252721592
0.5473227711334276,0.09468955020822227
0.5957459377485326,0.09033554477790698
0.6441691043636375,0.08646895386185592
0.7004399409189879,0.08247526486907031
0.7405697219359698,0.07990134803662187
0.8007643934614428,0.07639828319669917
0.8707144764421018,0.07277834570614698
0.9205996689142697,0.07044437138167463
0.9704848613864376,0.06828646943913035
1.0203700538586056,0.06628315816755963
1.08238216468802,0.06398158224727164
1.1443942755174343,0.061862769467544106
1.2064063863468486,0.059903321297075
1.2684184971762629,0.05808386572718998
1.384049059040842,0.0550112828274508
1.4996796209054217,0.052287545929771896
1.6246799797902072,0.049663915789687714
1.7684199327154042,0.0469845835562432
1.9121598856406012,0.04460184570962539
2.0791949633301385,0.04213813470222734
2.1983167233779435,0.0405492675183419
2.3174384834257484,0.039080317889073096
2.4365602434735534,0.03771691637226715
2.5846400928276645,0.03615126815771416
2.7327199421817756,0.034711058033094495
2.8807997915358863,0.033380526119387445
3.0288796408899974,0.032146590851086364
3.3049959664371036,0.03006726332572585
3.5811122919842093,0.028230223852303192
3.8796029265601994,0.026467996618687914
4.108429094982705,0.02524935360604779
4.451668347616464,0.023602364007178595
4.68049451603897,0.02260824272127419
4.964947537339905,0.02147206248938112
5.24940055864084,0.02043264896380973
5.533853579941774,0.019477861108898476
5.818306601242709,0.01859759135024665
6.171909171635051,0.017594540480199063
6.525511742027394,0.016680001345018042
6.879114312419737,0.015842765055369374
7.055915597615908,0.015450156207605507
7.452497951081687,0.014626099978666575
7.672279019351295,0.014200261884542088
8.111841155890511,0.013407443753657758
8.551403292429727,0.012684686905721854
8.990965428968943,0.012023370632041137
9.537383605919795,0.011276137745058356
10.083801782870646,0.010601146191721412
10.630219959821497,0.009988862555263043
11.176638136772349,0.009431362834284368
11.85588868927223,0.008804797017406989
12.195513965522172,0.008516042581624375
12.874764518022056,0.007981894498393677
13.214389794271998,0.007734528704500145
13.554015070521938,0.0074991308437895475
14.10473385195413,0.007140873691263844
14.738014367500874,0.006761427433683756
15.16020137786537,0.006525932752822237
16.004575398594362,0.006092316968435305
16.848949419323354,0.005702769804434158
17.795955647175468,0.0053110664665553045
18.583184473406895,0.00501707306063306
19.370413299638315,0.004748241415337837
20.157642125869735,0.004501748804205052
20.944870952101162,0.004275163672037419
21.795890649805493,0.004050185406656238
22.44829161023893,0.0038903569172830266
23.42689305088908,0.0036690334752410222
24.079294011322517,0.0035326054492548446
24.731694971755953,0.0034042515884807377
25.38409593218939,0.003283344491951586
26.036496892622825,0.0031693169420590503
26.68889785305626,0.0030616550336180653
27.49989523842641,0.0029359965705982936
28.310892623796565,0.002818650276524685
29.12189000916672,0.002708897135389869
29.93288739453687,0.002606094452033992
31.1493834725921,0.002463678841505922
32.36587955064733,0.0023339152923011683
33.68095096331524,0.0022061882556028184
35.19317304520852,0.0020734531556748114
36.201321099804034,0.00199240813347447
37.71354318169732,0.001880714103240247
38.72169123629284,0.0018121792218408737
40.23391331818611,0.001717290920183453
41.242061372781635,0.001658809713230103
42.49528674479792,0.0015909156822427274
43.74851211681422,0.0015278689632317588
45.001737488830514,0.0014692158844959995
46.2549628608468,0.0014145545102851854
47.50818823286309,0.0013635277286393726
48.76141360487939,0.001315817393588389
50.64125166290383,0.001249856852208252
52.82574448953824,0.0011806839541370795
55.16256470047763,0.0011144011528003415
57.499384911417025,0.001054995015377677
59.83620512235642,0.0010015313248836451
62.17302533329581,0.0009532291177891407
64.69920319065795,0.0009060623343391466
66.6357986241297,0.000873029600459947
69.54069177433736,0.000827931210283688
71.47728720780913,0.0008004992009312595
73.41388264128089,0.0007749426033313562
75.35047807475266,0.000751088758565044
79.22366894169619,0.0007078935044637361
81.63104405043597,0.0006837123922515814
84.03841915917575,0.000661322045436828
86.44579426791552,0.0006405423187006066
88.8531693766553,0.0006212153005220268
93.66791959413486,0.0005863801767183966
97.27898225724452,0.0005631470410437043
101.4752695121054,0.0005387967273781209
105.96416906284185,0.0005154582524058481
110.45306861357832,0.0004945173804823264
113.44566831406931,0.0004817185908111197
119.43086771505125,0.00045852945827349874
126.14355778902251,0.00043576970634691186
129.86364816250278,0.0004244098542085776
137.3038289094633,0.0004039517648594698
141.02391928294355,0.0003947098164811944
148.4641000299041,0.00037790347255476124
156.8086219251111,0.00036132014844727394
166.05748496856455,0.0003452374682862461
170.6819164902913,0.00033796203014912227
179.93077953374473,0.0003247103607026447
189.1796425771982,0.00031294213647135535
200.6768723496743,0.0003000206643904754
212.17410212215043,0.0002886585769728769
223.67133189462652,0.00027857920706467914
235.16856166710264,0.00026956766122503974
249.4607283712769,0.0002596023140692979
263.7528950754512,0.00025077420738539975
278.0450617796255,0.00024288844156581952
301.22050006931295,0.00023172667862525817
327.8703148258525,0.0002208513666818719
354.5201295823921,0.00021159031997432142
385.4889297501987,0.0002023911960655246
418.6172226236388,0.0001939943662536432
451.7455154970789,0.00018676392632189354
479.19995995843897,0.00018148303582611884
506.654404419799,0.000176736556463726
547.8360711118391,0.00017044855110731624
595.6918186288099,0.00016416136912651786
629.8203439151006,0.00016022462891000707
681.0131318445367,0.0001550200811618443
719.2899205662247,0.00015159326201285897
761.7149727233101,0.0001481891549496073
804.1400248803956,0.00014514551718433923
846.5650770374809,0.00014241783926581815
894.146821173834,0.00013969069494499054
946.8852572894546,0.00013703220913448982
999.6236934050751,0.00013471630151188707
1078.731347578506,0.0001318178726705799
1144.2903157471978,0.00012989463181746808
1242.6287680002351,0.00012777309067104006
1308.1877361689267,0.00012686168886023053
1381.7152839417831,0.00012633797897990294
1422.4633476302934,0.00012629072585550522
1503.9594750073143,0.00012677853006044275
1565.08157054008,0.00012773163635273362
1626.2036660728454,0.00012929506257304467
1674.6060760411865,0.0001310576544429976
1728.1865,0.00013367494993475916
1768.983675,0.0001362426392711862
1809.78085,0.0001394226728897805
1850.578025,0.00014335479029835532
1870.9766125,0.00014565870016670346
1901.5744937499999,0.00014961658319276205
1921.9730812500002,0.0001526408366211242
1942.37166875,0.00015602244027104653
1962.7702562499999,0.000159811749117801
1983.1688437500002,0.00016406853816324302
2013.766725,0.00017149022250814093
2034.1653125,0.00017726041603129502
2044.3646062500002,0.00018043309735165053
2063.372925001443,0.00018692913683677708
2080.1789875025256,0.00019338988680519265
2096.173062501804,0.00020026202879493992
2112.1671375010824,0.0002079482799425743
2128.1612125003608,0.00021657659153996004
2140.2379675,0.0002238085095375415
2152.47712,0.00023185508971922589
2168.79599,0.0002438731661681472
2183.0546026624997,0.00025577548268477466
2194.620601775,0.0002665482232566305
2201.43373,0.00027342340842233183
2209.593165,0.0002822291355801391
2217.7526000000003,0.000291718149776267
2224.36174235,0.0002999537804948372
2232.5211773500005,0.0003108673208528237
2244.43395245,0.00032846095495480873
2253.0625549625,0.00034259979196782153
2261.07919985,0.00035693063301679283
2266.5664198875,0.0003674749336035944
2277.5408599625,0.00039057979752935566
2285.23112745,0.00040857565945756115
2291.8402698,0.00042539203774634665
2298.6941951999997,0.00044430404027629626
2305.5481206,0.00046488897163393656
2312.402046,0.00048734843181391175
2315.8290087,0.0004993525034593215
2322.4381510499998,0.0005241115258717352
2325.6203307,0.0005368497822026673
2331.9846900000002,0.000564084346712059
2340.1441250000003,0.0006028342766694243
2346.9164560500003,0.0006387493214062874
2350.0986357,0.0006569493231370412
2356.462995,0.0006961889368970993
2360.991481425,0.0007266550094876837
2365.5199678500003,0.0007594853147471353
2369.150916425,0.0007876840216912844
2372.781865,0.0008177070093004659
2376.8615824999997,0.000853816715090415
2380.9413,0.0008926865728855853
2386.47951650625,0.0009503899313720211
2391.0997965750003,0.0010034295192349024
2395.72007664375,0.0010615294723248408
2400.9931115125,0.0011348735169254345
2403.6551271812505,0.0011750939668452125
2406.49053084375,0.0012205402033078812
2410.7436363375,0.0012942489271186661
2415.61889875,0.001387951243859929
2417.6587575000003,0.0014304258874260998
2421.0857202,0.0015066183785495898
2422.7992015500004,0.0015471692991655284
2426.2261642500002,0.0016336628497370192
2429.65312695,0.0017280739527886192
2432.2029503875,0.0018040416486785004
2434.71197665,0.0018840586742031838
2438.057345,0.0019997433128225786
2441.321119,0.0021237052634254226
2443.6057608,0.0022177822606688664
2446.78794045,0.002360059818098077
2449.480554,0.0024918647231882544
2452.82592235,0.0026721991681794553
2456.08969635,0.0028683801373789244
2459.2718760000002,0.003081930168854232
2460.9037630000003,0.003201095006715908
2462.5356500000003,0.0033275017060157824
2464.1675370000003,0.0034617482399752855
2465.7994240000003,0.0036044955625906035
2467.4313110000003,0.003756475737152665
2469.8791415000005,0.004003559698480985
2471.5110285,0.004182380120368943
2473.9588590000003,0.004474423813064651
2475.5907460000003,0.004686785248214995
2478.0385765,0.005035376331162588
2479.6704635000006,0.005290206929010073
2482.118294,0.005710918310712966
2483.750181,0.006020324305974685
2484.5661245,0.00618466961962102
2486.1980114999997,0.0065344784870658605
2487.013955,0.006720754883684285
2488.645842,0.007118310565646259
2490.277729,0.007552620279077106
2491.909616,0.008028353305730637
2493.541503,0.008550944341848674
2495.3773758750003,0.009202824693571159
2496.601291125,0.009680071246144686
2497.2132487500003,0.009932843080929388
2498.437164,0.010469240145298604
2499.049121625,0.010753992998673339
2500.273036875,0.011359724782098117
2500.8849945,0.011682084362777677
2502.10890975,0.012369623984959591
2502.720867375,0.012736508977990509
2503.7407967500003,0.013385495328984273
2504.55674025,0.013941260155018391
2505.7806554999997,0.014842443854227566
2506.596599,0.015492884548315372
2507.82051425,0.016552085738455135
2508.63645775,0.017319969932122013
2509.860373,0.01857637297592084
2510.6763165,0.019491742806654083
2511.90023175,0.0209974683209246
2512.7161752499997,0.022100617201830684
2513.124147,0.022685162678053736
2513.9400905,0.023926204331002832
2514.34806225,0.024585353216372233
2515.16400575,0.02598824719295087
2515.9799492499997,0.027514979880453386
2516.7958927500003,0.02918055859538381
2517.2038645000002,0.030070734058424194
2518.019808,0.03197796806017137
2518.8357515000002,0.03407283845860916
2519.651695,0.03638077601412378
2520.4676385000002,0.03893166916912967
2521.283582,0.04176083545330821
2522.0995255000003,0.044910249088195964
2522.50749725,0.04662036214036144
2522.915469,0.04843010501429747
2523.3234407500004,0.05034736584920736
2523.7314125000003,0.05238082896650734
2524.13938425,0.054540073265990426
2524.547356,0.05683568510400931
2524.95532775,0.05927938814146356
2525.3632995000003,0.061884193140532576
2525.77127125,0.06466457129047269
2526.383228875,0.06920013986939279
2526.9951865000003,0.07423022554319957
2527.40315825,0.07789459851127907
2527.81113,0.08183714983305251
2528.21910175,0.08608675077283773
2528.6270735000003,0.09067611634176484
2529.03504525,0.09564243594040932
2529.443017,0.10102812806406863
2529.8509887500004,0.10688174775912704
2530.2589605000003,0.11325908320150177
2530.66693225,0.12022448780561407
2530.870918125,0.12395056176982552
2531.1768969375,0.12987290968118054
2531.48287575,0.13622988019741397
2531.6868616250003,0.1407306100601188
2532.0948333750002,0.15042754616064377
2532.502805125,0.16116177682410093
2532.706791,0.1669647088162469
2533.11476275,0.17955124219166776
2533.318748625,0.18638469365371874
2533.5227345000003,0.19361553039415563
2533.7267203750002,0.20127515028912157
2534.0326991875,0.2136451061332411
2534.2366850625003,0.22253576886308998
2534.4406709375,0.23199270288879742
2534.6446568125,0.24206499982539825
2534.9506356250004,0.2584481892674802
2535.1546215000003,0.270311170471903
2535.4606003125,0.28969616641874074
2535.6645861875004,0.3038003053051587
2535.970565,0.32696685697906713
2536.174550875,0.3439135274886557
2536.2765438124998,0.35288467614160385
2536.4805296875,0.37191167618653526
2536.582522625,0.3820067825131576
2536.7865085000003,0.40346861959682634
2536.8885014375,0.41488331235937026
2537.0924873125005,0.43921324985341076
2537.2964731875,0.4657445703524361
2537.398466125,0.4799195772839811
2537.602452,0.5102789904634244
2537.7044449375,0.5265487889867082
2537.9084308125002,0.5615084214387461
2538.01042375,0.5803062232986339
2538.2144096250004,0.6208427780094877
2538.3164025625,0.6427196155116147
2538.49998985,0.68511537243187
2538.7039757250004,0.7373233054152059
2538.867164425,0.7834994663776252
2538.98955595,0.8210319869522389
2539.0711503,0.847568476078476
2539.234339,0.9046412245735671
2539.3975277,0.9676622357160559
2539.5607164000003,1.0374853138336813
2539.7239051,1.1151226558397704
2539.80549945,1.1572400835446004
2539.927890975,1.2250192639636133
2540.0094853250002,1.2735563789622195
2540.0910796750004,1.3250255686575014
2540.1726740250006,1.3796669464471893
