energy [eV],cross section [b]
1e-05,137.895881
1.09829869e-05,131.580357
1.19659739e-05,126.059989
1.30348509e-05,120.780898
1.38619556e-05,117.12215
1.46890604e-05,113.776948
1.59297175e-05,109.256491
1.69736311e-05,105.843429
1.80175448e-05,102.731464
1.90614584e-05,99.8787771
2.0105372e-05,97.2512563
2.20817038e-05,92.7972238
2.33992583e-05,90.1467814
2.47168128e-05,87.7111963
2.7038515e-05,83.8609633
2.95329023e-05,80.2413442
3.20272897e-05,77.0532856
3.41261168e-05,74.6462191
3.72743575e-05,71.424328
4.04225982e-05,68.5865769
4.30715906e-05,66.4440017
4.5720583e-05,64.4904417
4.83695754e-05,62.6996461
5.10185678e-05,61.0502
5.43619401e-05,59.1430534
5.93769987e-05,56.5903118
6.2720371e-05,55.0613547
6.65019422e-05,53.472936
7.28315973e-05,51.0965133
7.91612523e-05,49.0111445
8.65970351e-05,46.8597155
9.45858817e-05,44.8371487
0.000102574728,43.0557287
0.000109296703,41.7107106
0.000119379664,39.9103857
0.000126101639,38.8320863
0.000133704629,37.7118515
0.000142188633,36.5694662
0.000150672638,35.5249807
0.000159156642,34.565166
0.000168752602,33.5680238
0.000184814476,32.076206
0.000195522391,31.1855004
0.000206230307,30.3650992
0.000226502476,28.9743989
0.000246774646,27.7587949
0.000268818129,26.5963207
0.000285875536,25.7906514
0.000302932943,25.0540261
0.000328519053,24.0586055
0.000350047716,23.3070373
0.000382340709,22.3010529
0.000403869372,21.6985214
0.000428219687,21.0725573
0.000455391654,20.4342158
0.000482563621,19.8505787
0.000509735589,19.3142539
0.000540468848,18.7570712
0.000591910675,17.9234737
0.000643352501,17.1919715
0.000703783953,16.4372966
0.000768710218,15.7278236
0.000833636483,15.1029397
0.000888266734,14.631136
0.000942896985,14.2009542
0.00102484236,13.6213757
0.00108663272,13.228421
0.00115558319,12.8276963
0.00122453366,12.4613126
0.00129348413,12.1246296
0.00137147159,11.7748529
0.00145849604,11.4181598
0.00154552049,11.0920344
0.00163254493,10.7923461
0.00178589331,10.3185913
0.00195064754,9.8732123
0.00211540177,9.48093472
0.00225402925,9.18475486
0.00246197048,8.78831383
0.00266991171,8.43913942
0.0028448776,8.17550355
0.00301984349,7.93512512
0.00328229232,7.61126611
0.0034801901,7.39168929
0.00370101977,7.16777057
0.00392184944,6.96304098
0.00414267911,6.77490756
0.0043924518,6.5794574
0.00467116752,6.38014237
0.00508924109,6.11245737
0.00554384452,5.85647151
0.00607150766,5.59618875
0.0065991708,5.3677838
0.00721904478,5.13214291
0.00766303104,4.98124079
0.00832901044,4.77793188
0.00911137189,4.56818196
0.0096717402,4.43386008
0.0102321085,4.3107292
0.0107924768,4.19731692
0.0114997344,4.06618539
0.012206992,3.94662177
0.0129142496,3.8370195
0.0136215072,3.73606797
0.0149604835,3.56493964
0.0162994599,3.41535644
0.0177554314,3.27231021
0.0194453934,3.12686221
0.0211353555,2.99922718
0.0225990071,2.90046006
0.024399669,2.79136376
0.0263432734,2.68639654
0.0282839007,2.59257857
0.0300786086,2.51402478
0.0318733164,2.44220236
0.0336680243,2.37620171
0.0356979553,2.30763376
0.0390956868,2.20504859
0.0413608412,2.14379833
0.0436259955,2.08738212
0.0479143739,1.99174711
0.0522027522,1.90815161
0.0568658345,1.82820835
0.0622783248,1.7469217
0.0676908151,1.67558913
0.0717720671,1.62722468
0.0763262441,1.57790307
0.0831575097,1.51166151
0.0877116868,1.47186704
0.0934596495,1.42585436
0.0992076123,1.3838999
0.104955575,1.34544007
0.110703538,1.3100151
0.117958213,1.26905447
0.128840226,1.21422615
0.139722239,1.16593282
0.153456753,1.11247253
0.167191267,1.06574063
0.182125855,1.02104869
0.193682348,0.990072689
0.211017088,0.948468866
0.229866478,0.908680585
0.244452273,0.881102943
0.259038068,0.855887207
0.28091676,0.821810143
0.299325927,0.796079065
0.317735094,0.77261628
0.33614426,0.751106813
0.354553427,0.731293711
0.389405566,0.697704217
0.424257704,0.668339912
0.462155105,0.640255158
0.506143029,0.611694651
0.550130954,0.586627988
0.60180591,0.560762693
0.638818225,0.544196126
0.694336697,0.521872464
0.736200028,0.506734324
0.782914375,0.491294404
0.852985896,0.470553961
0.899700243,0.458091889
0.958659816,0.443680165
1.01761939,0.430537149
1.07657896,0.41848674
1.17274585,0.400813529
1.2843678,0.382837522
1.35878244,0.372101482
1.43319707,0.362210494
1.57407847,0.345438214
1.71495987,0.330771313
1.86815101,0.316739326
1.98669143,0.307010425
2.10523184,0.298112312
2.28304246,0.286083259
2.43265585,0.276997104
2.58226924,0.268709396
2.73188264,0.261109439
2.88149603,0.254106919
3.16474332,0.242231031
3.35357485,0.235160623
3.54240638,0.228661017
3.87515206,0.218381592
4.23264692,0.208712621
4.59014178,0.20019238
5.04134672,0.190756912
5.49255166,0.182506469
5.95668558,0.175016018
6.28334685,0.170249163
6.77333874,0.163756616
7.2059831,0.158584485
7.55155178,0.154777821
8.03072293,0.149913808
8.50989408,0.145469597
8.98906522,0.141389119
9.5310389,0.137154652
10.4382032,0.130831824
11.3453675,0.125300481
12.4110617,0.119617929
13.5560209,0.114307017
14.70098,0.109664136
15.6643715,0.106187451
17.1094586,0.101585527
18.5545457,0.0975975205
19.805,0.0945611286
21.015,0.091937304
22.0695615,0.0898730878
23.418246,0.0875020049
24.744825,0.0854339153
26.154475,0.0834945156
27.364475,0.0820237737
28.88,0.0804149967
30.4284336,0.0790217463
31.9534,0.0778835662
33.4901,0.0769627221
35.2567,0.0761791242
37.3046043,0.0756400051
38.538825,0.0755114775
40.166275,0.0755785531
41.6334,0.0758837515
43.3032,0.0765381842
44.8278,0.0774514317
46.3524,0.0787043026
47.6616273,0.08008756
48.845,0.0816157453
49.9824,0.0833668989
51.3981,0.085992017
52.54155,0.0885314336
53.75155,0.091698949
54.895,0.095226022
56.0929,0.0995836909
57.00645,0.103446675
57.463225,0.105579386
58.28905,0.109821073
59.0416405,0.114175038
59.425181,0.116595772
60.34,0.122996625
60.945,0.127780101
61.4532,0.132186631
61.9614,0.136990704
62.4696,0.142238967
62.9778,0.147985229
63.4739,0.154134624
64.091,0.162631637
64.6234,0.170827946
65.1074,0.179079162
65.664,0.189651601
66.1601,0.200200755
66.4142,0.206069033
66.874,0.217589892
67.358,0.231136195
67.6,0.238526865
67.963,0.250480825
68.205,0.25908585
68.447,0.268250682
68.689,0.278024706
69.052,0.29394995
69.294,0.30550164
69.657,0.324413323
69.899,0.338199846
70.262,0.360892093
70.504,0.377528175
70.867,0.405078721
71.109,0.425406671
71.23,0.436226587
71.472,0.459307822
71.714,0.484506769
71.956,0.51209094
72.198,0.542371562
72.3795,0.567068153
72.561,0.593661203
72.83325,0.637550548
73.01475,0.669818338
73.1055,0.686954778
73.287,0.723423387
73.37775,0.742840084
73.55925,0.78427322
73.771,0.837475263
73.892,0.870508373
74.013,0.905660953
74.134,0.94311867
74.3155,1.00408543
74.4365,1.04826203
74.5575,1.09557747
74.6785,1.14633697
74.86,1.22969657
75.0022947,1.3018839
75.1625,1.39138247
75.2835,1.46550147
75.344,1.50488784
75.465,1.58876155
75.5255,1.63344739
75.6465,1.72886938
75.707,1.77985179
75.828,1.88904801
75.8885,1.94757033
76.0095,2.07333056
76.1305,2.21204155
76.2515,2.36554782
76.3725,2.53603466
76.46325,2.67659159
76.52375,2.77703762
76.58425,2.88336939
76.64475,2.99605659
76.70525,3.11561674
76.76575,3.24262113
76.82625,3.37770174
76.88675,3.52155907
76.94725,3.6749713
77.00775,3.83880486
77.06825,4.01402668
77.12875,4.20171858
77.18925,4.40309399
77.28,4.73384608
77.3405,4.97579027
77.401,5.23701982
77.43125,5.37551424
77.49175,5.66971427
77.55225,5.98903955
77.61275,6.33643741
77.67325,6.71530049
77.73375,7.12954996
77.79425,7.58373747
77.85475,8.08317085
77.91525,8.63406997
77.9455,8.93105922
77.990875,9.40635378
78.021125,9.74477396
78.0589375,10.1943037
78.09675,10.675897
78.1345625,11.1926784
78.1648125,11.6337864
78.1988438,12.1621329
78.2290938,12.66277
78.263125,13.2640621
78.2971563,13.9094664
78.3302422,14.5834319
78.3642734,15.3293394
78.3983047,16.134258
78.4332812,17.0297575
78.4692031,18.0297061
78.505125,19.1207599
78.5429375,20.3802306
78.58075,21.7688359
78.6185625,23.3048451
78.656375,25.0098728
78.6752813,25.9336216
78.6979688,27.1114655
78.716875,28.1555473
78.7357813,29.2612599
78.7546875,30.4335467
78.777375,31.9358801
78.7962812,33.2746153
78.8189688,34.9954171
78.837875,36.5336255
78.85905,38.3801157
78.8817375,40.5184216
78.904425,42.8406923
78.9256,45.1932087
78.9498,48.1271686
78.974,51.3564467
78.9982,54.9219608
79.0224,58.8719501
79.0466,63.2635998
79.0587,65.6458602
79.0708,68.1651025
79.0829,70.8320024
79.095,73.6582925
79.1071,76.6568902
79.1192,79.8420437
79.1313,83.2294992
79.14945,88.7286571
79.16155,92.7024035
79.1797,99.181326
79.1918,103.884168
79.20995,111.58888
79.22205,117.209622
79.2402,126.467978
79.2523,133.260281
79.25835,136.862441
79.27045,144.516663
79.285575,155.016558
79.29465,161.871674
79.303725,169.188614
79.309775,174.343733
79.31885,182.526273
79.327925,191.293997
79.337,200.703521
79.346075,210.818407
79.35515,221.710195
79.364225,233.459618
79.3733,246.158046
79.382375,259.909178
79.388425,269.719074
79.394475,280.087972
79.40355,296.783915
79.4096,308.746107
79.41565,321.435605
79.424725,341.964638
79.430775,356.744708
79.436825,372.487242
79.4459,398.091309
79.45195,416.626613
79.458,436.459945
79.46405,457.712479
79.4701,480.519473
79.47615,505.032214
79.4822,531.420271
79.48825,559.874111
79.4943,590.608138
79.50035,623.864234
79.503375,641.522162
79.509425,679.085331
79.515475,719.92433
79.521525,764.414604
79.527575,812.983986
79.5306,838.948396
79.53665,894.574153
79.539675,924.384949
79.5442125,971.829534
79.54875,1022.82153
79.5532875,1077.69953
79.5563125,1116.62787
79.56085,1178.8392
79.5653875,1246.03569
79.569925,1318.71667
79.5744625,1397.43738
79.579,1482.81474
79.5835375,1575.53341
79.588075,1676.3518
79.5926125,1786.10761
79.59715,1905.72247
79.6016875,2036.20484
79.6047125,2129.76795
79.6077375,2228.99121
79.612275,2389.2302
79.6153,2504.20663
79.618325,2626.15277
79.6228625,2822.9896
79.6258875,2964.04902
79.6289125,3113.3997
79.6319375,3271.37018
79.636475,3525.08285
79.64071,3780.49665
79.64434,4013.81589
79.64918,4345.02145
79.65402,4697.40016
79.65886,5067.25752
79.67217,6115.52247
79.67701,6474.3524
79.68064,6720.79012
79.68306,6870.20336
79.68548,7005.15481
79.6879,7123.53139
79.69032,7223.37215
79.69274,7302.94336
79.69516,7360.80986
79.69758,7395.8976
79.7,7407.54243
79.70363,7380.68948
79.70605,7333.73565
79.70847,7264.50366
79.71089,7174.25938
79.71331,7064.59929
79.71573,6937.38288
79.71815,6794.65867
79.72178,6556.23931
79.72662,6204.43217
79.74356,4876.60294
79.7484,4514.87043
79.75082,4341.1518
79.75566,4009.98578
79.75808,3853.00037
79.763525,3521.36953
79.76655,3350.02079
79.769575,3187.69188
79.7726,3034.13299
79.775625,2889.03648
79.77865,2752.05527
79.781675,2622.8175
79.7862125,2442.63627
79.79075,2277.70097
79.7952875,2126.72807
79.799825,1988.49118
79.8043625,1861.83923
79.8089,1745.70546
79.8134375,1639.11043
79.817975,1541.16087
79.821,1480.26063
79.8255375,1394.95731
79.8285625,1341.82409
79.8331,1267.26296
79.836125,1220.733
79.842175,1134.6033
79.8452,1094.72309
79.85125,1020.70126
79.8573,953.587641
79.86335,892.593002
79.8694,837.030749
79.87545,786.302618
79.8815,739.886346
79.88755,697.325101
79.8936,658.218439
79.89965,622.214574
79.9057,589.003777
79.91175,558.312737
79.920825,516.479569
79.926875,491.089493
79.932925,467.485708
79.942,435.084049
79.951075,405.875472
79.96015,379.461442
79.969225,355.502564
79.9783,333.708556
79.987375,313.830114
79.993425,301.534629
80.0025,284.385582
80.011575,268.640872
80.02065,254.15307
80.0267,245.128527
80.0388,228.44886
80.04485,220.73366
80.05695,206.420059
80.06905,193.442465
80.0751,187.403768
80.0872,176.137807
80.0993,165.850147
80.10535,161.038429
80.11745,152.018049
80.12955,143.729695
80.14165,136.096747
80.15375,129.052292
80.16585,122.537695
80.17795,116.501405
80.19005,110.89796
80.20215,105.687149
80.21425,100.833299
80.2324,94.1533734
80.2445,90.0605071
80.2566,86.2276418
80.27475,80.9194607
80.28685,77.6472942
80.29895,74.5688753
80.3171,70.2822179
80.33525,66.3535295
80.3534,62.7441545
80.3776,58.3709394
80.3897,56.3532784
80.4139,52.6186623
80.426,50.8886435
80.4502,47.6743724
80.4623,46.1799346
80.48045,44.0663181
80.495575,42.413587
80.513725,40.5498802
80.5349,38.5263686
80.562125,36.1393307
80.592375,33.7377342
80.622625,31.5673213
80.652875,29.599394
80.683125,27.8095668
80.713375,26.177013
80.743625,24.6838594
80.773875,23.3146989
80.789,22.6723762
80.81925,21.4647518
80.8495,20.35096
80.87975,19.3215389
80.894875,18.8358329
80.94025,17.4836039
80.985625,16.2717595
81.031,15.1815423
81.076375,14.1972235
81.12175,13.305535
81.152,12.7569076
81.197375,11.9954227
81.24275,11.3000955
81.288125,10.6634872
81.318375,10.2684949
81.36375,9.71590629
81.394,9.37192345
81.4545,8.7365708
81.48475,8.44285273
81.54525,7.89817343
81.5755,7.64539474
81.620875,7.28839529
81.66625,6.95584077
81.6965,6.74663197
81.757,6.3555869
81.8175,5.99760978
81.878,5.66907899
81.9385,5.36685516
81.999,5.08820617
82.0595,4.83074535
82.12,4.59238041
82.1805,4.37127095
82.241,4.16579289
82.3015,3.97450872
82.362,3.79614235
82.4225,3.62955785
82.483,3.47374138
82.57375,3.2582482
82.63425,3.12558436
82.69475,3.00089819
82.7855,2.8274741
82.87625,2.66873878
82.967,2.52308148
83.088,2.34682915
83.1485,2.26559822
83.2695,2.11538893
83.33,2.04587143
83.451,1.91682389
83.5115,1.85687502
83.6325,1.74519941
83.693,1.69314332
83.78375,1.61936995
83.8745,1.5503731
83.9955,1.46511725
84.1165,1.38679929
84.177,1.3500096
84.298,1.28075693
84.4795,1.18661345
84.6005,1.12960303
84.782,1.05163491
84.903,1.00414806
85.024,0.95987747
85.145,0.918539776
85.3265,0.861486644
85.4475,0.826432271
85.5685,0.793535261
85.6895,0.762622586
85.84075,0.726535951
85.9315,0.706141102
86.113,0.667933037
86.20375,0.650024377
86.38525,0.616383257
86.476,0.600573534
86.6575,0.570801334
86.92975,0.530302756
87.11125,0.50576347
87.323,0.479334988
87.565,0.451723849
87.807,0.42656548
87.928,0.414816582
88.17,0.392822508
88.412,0.372649414
88.654,0.354102351
88.775,0.345384707
89.138,0.321229519
89.501,0.299729952
89.864,0.280511896
90.227,0.263264785
90.59,0.247729083
90.953,0.233686552
91.316,0.220952616
91.679,0.209370324
92.042,0.198805539
92.284,0.192270067
92.526,0.186105191
92.9858,0.175317004
93.494,0.164640417
93.736,0.159964129
94.1353,0.152762845
94.4499,0.147501676
94.8043174,0.141969384
95.309,0.134741609
95.9261,0.126817375
96.298175,0.122467497
96.6763,0.118341593
97.1845,0.113219793
97.9468,0.106339229
98.455,0.102220148
98.90875,0.0988212779
99.480475,0.0948749741
100.321425,0.0896707059
100.7419,0.0873058641
101.295475,0.0844069757
101.936775,0.0813244449
102.850325,0.0773834941
103.60355,0.0744818667
104.2025,0.0723717356
105.11,0.0694688604
105.64845,0.0678968855
106.522675,0.065556437
107.53,0.0631482501
108.9457,0.0602108427
110.307531,0.0578009877
111.46571,0.0560224278
112.974788,0.0540226601
114.421436,0.0523944701
115.868084,0.0510081598
117.2114,0.0499092869
118.451384,0.0490374407
119.7947,0.04823143
121.5169,0.0473876606
122.799939,0.0468853347
124.1002,0.0464784845
125.8224,0.0460904121
128.4057,0.0458265777
129.78346,0.0458532501
130.81678,0.0459635157
131.8501,0.046169796
132.88342,0.046504773
133.5723,0.0468294671
134.26118,0.0472741776
134.77784,0.0477226307
135.2945,0.048318577
135.81116,0.0491406444
136.1556,0.0498813344
136.50004,0.0508574659
136.67226,0.0514689812
136.84448,0.0521906568
137.10281,0.0535480019
137.27503,0.0547013596
137.36114,0.0553760088
137.44725,0.0561301234
137.576415,0.0574404802
137.662525,0.0584587837
137.748635,0.0596185099
137.834745,0.0609478062
137.920855,0.0624822093
138.006965,0.0642671011
138.05002,0.0652711787
138.13613,0.0675473118
138.179185,0.0688413957
138.265295,0.0718103061
138.329878,0.0744395126
138.39446,0.0774979454
138.459043,0.0810852269
138.523625,0.0853316546
138.56668,0.0886120008
138.588208,0.090410266
138.631262,0.0943705274
138.65279,0.0965548222
138.695845,0.101397587
138.728136,0.105506974
138.749664,0.108508813
138.781955,0.113460863
138.803482,0.117099947
138.835774,0.123142283
138.857301,0.127612877
138.889592,0.135091081
138.91112,0.14066739
138.932647,0.146788276
138.943411,0.15007537
138.964939,0.157154421
138.975703,0.160969675
138.99723,0.169217722
139.02091,0.17936524
139.033827,0.185440139
139.048896,0.193069655
139.057507,0.197715094
139.074729,0.207694225
139.08334,0.2130585
139.100562,0.2246228
139.109173,0.230861891
139.126395,0.244364913
139.135006,0.25167937
139.152228,0.267578657
139.16945,0.285398088
139.182367,0.300213407
139.195283,0.316448315
139.208199,0.334289416
139.221116,0.353954866
139.229727,0.368203459
139.238338,0.383462835
139.251255,0.408463478
139.259865,0.426702732
139.268477,0.446350131
139.281393,0.47879031
139.290004,0.502649213
139.298615,0.52852772
139.30292,0.542295802
139.311532,0.57165068
139.320142,0.603673246
139.328754,0.638693895
139.337364,0.677095284
139.345976,0.719322469
139.354586,0.765895376
139.363198,0.817424237
139.371808,0.874628826
139.38042,0.938362555
139.384725,0.972988407
139.38903,1.00964289
139.393336,1.04848516
139.399794,1.11123774
139.4041,1.15635302
139.410558,1.22950328
139.414863,1.28228963
139.421322,1.36821534
139.425627,1.43047294
139.432085,1.53225356
139.436391,1.60632743
139.442849,1.72799911
139.447155,1.81698201
139.449308,1.86407305
139.453613,1.96390271
139.455766,2.01683763
139.460071,2.12928588
139.462224,2.18903541
139.46653,2.31623454
139.468682,2.38396979
139.472988,2.52849883
139.47514,2.60563982
139.479446,2.77063383
139.481599,2.85891091
139.485904,3.04819927
139.49021,3.25623202
139.494515,3.48540252
139.496668,3.60875917
139.500973,3.87492613
139.505279,4.16991569
139.507432,4.32942191
139.509584,4.49764864
139.511737,4.67517943
139.51389,4.86264006
139.516043,5.06070111
139.518195,5.27008056
139.520348,5.49154624
139.522501,5.7259181
139.524654,5.97407014
139.526806,6.23693184
139.528959,6.51548894
139.531112,6.81078319
139.533265,7.12391085
139.535417,7.45601942
139.53757,7.80830222
139.540799,8.37725262
139.542952,8.78540649
139.546181,9.44406533
139.548334,9.91590292
139.551563,10.6755658
139.554792,11.5003049
139.558667,12.5786711
139.562112,13.6184173
139.565556,14.7307778
139.570723,16.5143283
139.580195,19.9237277
139.583639,21.0911728
139.586222,21.8931391
139.587945,22.3794729
139.589667,22.8188358
139.591389,23.2043537
139.593111,23.5296457
139.594833,23.7890683
139.596556,23.9779475
139.598278,24.0927826
139.6,24.1314048
139.602583,24.0452321
139.604305,23.8933085
139.606028,23.6689265
139.60775,23.3761942
139.609472,23.0202957
139.611194,22.6072716
139.612916,22.1437784
139.6155,21.369329
139.618944,20.2262819
139.631,15.9104406
139.634444,14.7344211
139.636166,14.1696171
139.639611,13.0928591
139.641333,12.5824119
139.645208,11.5040502
139.64736,10.9468537
139.649513,10.418974
139.651666,9.91960126
139.653819,9.44773712
139.655971,9.00225464
139.658124,8.58194612
139.661353,7.99594421
139.664582,7.45951143
139.667812,6.96847665
139.671041,6.51885398
139.67427,6.10690188
139.677499,5.72915272
139.680728,5.38242238
139.683957,5.06380683
139.68611,4.86570371
139.689339,4.58821458
139.691492,4.41537082
139.694721,4.17281733
139.696874,4.02144894
139.701179,3.74125154
139.703332,3.61151051
139.707638,3.37069293
139.711943,3.15234436
139.716249,2.95389828
139.720554,2.77312185
139.72486,2.60806946
139.729165,2.45704263
139.73347,2.31855563
139.737776,2.1913061
139.742081,2.0741499
139.746387,1.96607967
139.750692,1.86620648
139.757151,1.73007105
139.761456,1.64744299
139.765762,1.57062631
139.77222,1.46517452
139.776525,1.4007291
139.780831,1.34050221
139.787289,1.25730813
139.793747,1.18177116
139.800206,1.1129941
139.806664,1.0502054
139.813122,0.992738895
139.81958,0.940017306
139.823886,0.907254957
139.832497,0.846864409
139.836802,0.81900387
139.845414,0.767441969
139.849719,0.743560975
139.85833,0.699202022
139.862636,0.678583543
139.871246,0.640156423
139.875552,0.622236666
139.884163,0.588736677
139.890621,0.565485589
139.89708,0.543692733
139.90569,0.51670064
139.918607,0.480143729
139.927218,0.458085765
139.940134,0.428020883
139.948745,0.409769513
139.957357,0.392796508
139.965967,0.376985771
139.978884,0.355226113
139.987495,0.341893294
139.996106,0.329407147
