energy [eV],cross section [b]
1e-05,1568.71307
1.08910831e-05,1503.169
1.14851384e-05,1463.77767
1.20791938e-05,1427.32919
1.27438295e-05,1389.61029
1.34790456e-05,1351.18025
1.45818697e-05,1299.08044
1.57720457e-05,1249.10347
1.71369252e-05,1198.32803
1.85018048e-05,1153.28028
2.00829014e-05,1106.95097
2.12090382e-05,1077.16173
2.28982434e-05,1036.66874
2.48550436e-05,995.023762
2.62487755e-05,968.246489
2.90362391e-05,920.597408
3.07611525e-05,894.413414
3.24860659e-05,870.343561
3.59358926e-05,827.512215
3.91380791e-05,792.936256
4.12728701e-05,772.15643
4.34076611e-05,752.929015
4.71171213e-05,722.681861
5.10802182e-05,694.07981
5.50433152e-05,668.625209
5.83131929e-05,649.607473
6.32180094e-05,623.89728
6.81228259e-05,601.0163
7.2169699e-05,583.921371
7.62165721e-05,568.2067
8.02634451e-05,553.696014
8.43103182e-05,540.243028
8.93188179e-05,524.876477
9.43273177e-05,510.750628
9.93358174e-05,497.70703
0.000104344317,485.614189
0.000110542947,471.801246
0.000119840893,453.127414
0.000129138838,436.508466
0.000140646181,418.268321
0.000152153524,402.138612
0.000164572334,386.666043
0.000174066829,375.971267
0.000188308571,361.472234
0.000203678365,347.56389
0.000215428962,337.950308
0.00022717956,329.092554
0.000238930157,320.896508
0.000252076856,312.414742
0.000266619655,303.773014
0.000288433855,292.057294
0.000302976654,284.959971
0.000320975145,276.853079
0.000347972881,265.893235
0.000374970618,256.139346
0.000408383614,245.433864
0.000441796611,235.966946
0.000477856163,226.885631
0.000505424606,220.608488
0.00054677727,212.098411
0.000574345713,206.943015
0.000608465029,201.054243
0.000642584344,195.640866
0.000693763318,188.282245
0.000731936386,183.303685
0.000774163206,178.231175
0.000816390027,173.557409
0.000858616848,169.232734
0.000931991106,162.429314
0.000984251955,158.054672
0.0010365128,154.01511
0.00112111324,148.084649
0.00121813202,142.059207
0.00131515079,136.713239
0.00142753878,131.214942
0.00150758717,127.67945
0.00162765975,122.873397
0.00171721878,119.621723
0.00181628844,116.308609
0.00196489293,111.816767
0.00206396259,109.095509
0.00218657339,105.987034
0.0023091842,103.129395
0.00243179501,100.49056
0.00263027874,96.6163474
0.00285789751,92.6798809
0.00316138921,88.1074979
0.00344309525,84.4159448
0.00372480128,81.1511369
0.00402882052,78.0189645
0.00437746614,74.8363093
0.00472611177,72.0122518
0.0049861575,70.1013907
0.00527381854,68.1542765
0.00570531009,65.5141629
0.00599297112,63.9145621
0.00634898679,62.0871868
0.00670500246,60.4071041
0.00706101813,58.8555097
0.00763734024,56.5772411
0.00829825955,54.2619698
0.0091794853,51.5721116
0.00999745369,49.3999246
0.0108154221,47.4784139
0.0116981796,45.63454
0.0127105154,43.7604668
0.0137228512,42.0970949
0.0144779261,40.9713272
0.0153131856,39.8239566
0.0165660748,38.2677926
0.0174013343,37.3246747
0.0184350699,36.2469955
0.0194688055,35.2559099
0.0205025411,34.3403708
0.0224772075,32.7694867
0.0243590692,31.4528497
0.026653773,30.0388952
0.0290288456,28.7545643
0.0314039181,27.617763
0.033967114,26.5262161
0.0369065564,25.4160331
0.0398459988,24.4299537
0.0420384526,23.7621571
0.0444637319,23.081167
0.0481016509,22.1568846
0.0505269302,21.5963167
0.0535285097,20.9553642
0.0565300891,20.3655052
0.0595316685,19.8202356
0.062533248,19.3141567
0.0662480691,18.7353915
0.0699628903,18.2026471
0.0736777115,17.7100703
0.0796913052,16.9857158
0.0865876226,16.2481503
0.0934839401,15.5922537
0.101472736,14.9160332
0.110007771,14.2748764
0.118542807,13.7027286
0.125584906,13.2742283
0.132627005,12.8794845
0.143190153,12.3415124
0.151068932,11.9765733
0.15978439,11.6038865
0.168499847,11.2596806
0.177215305,10.9404468
0.192359478,10.4367123
0.208539143,9.95851768
0.224718808,9.53130855
0.244743121,9.06052123
0.264767433,8.64243369
0.286377819,8.23971948
0.302899507,7.96036341
0.319421195,7.70222273
0.344203728,7.34924886
0.364651335,7.08461318
0.385098942,6.84063679
0.405546549,6.61474492
0.43219862,6.34396231
0.469913958,5.99970061
0.489015906,5.84029965
0.517668829,5.61750399
0.542879691,5.43587578
0.574199467,5.22673649
0.62117913,4.94262294
0.67187993,4.66956751
0.710641978,4.48061497
0.749404026,4.30642759
0.807547097,4.06902993
0.855519867,3.89175172
0.903492636,3.728946
0.951465405,3.57882864
0.999438174,3.43991083
1.08365265,3.2194446
1.16786712,3.02425315
1.2240101,2.90605231
1.27366697,2.80848644
1.34714727,2.6748179
1.38388742,2.61232034
1.45736773,2.4950971
1.53084803,2.38720739
1.57631845,2.32464618
1.6672593,2.20815138
1.75820015,2.10191533
1.849141,2.00466541
1.94415157,1.91150698
2.04323186,1.82246022
2.15578227,1.73012336
2.21879253,1.68208961
2.2818028,1.6364471
2.38822613,1.56433076
2.47505226,1.50970564
2.56640624,1.45592193
2.66228805,1.40317461
2.75816986,1.35387568
2.85405167,1.30771706
2.98818979,1.24789839
3.16058422,1.17823402
3.33297865,1.11562831
3.50537308,1.05913063
3.65125167,1.01550472
3.8302958,0.966570676
4.02902508,0.917485211
4.16151127,0.887466537
4.29399746,0.859391693
4.44500694,0.829552093
4.70906496,0.782292681
4.84109398,0.760756243
5.105152,0.721349588
5.23718101,0.703301091
5.50123904,0.670129364
5.67641484,0.650065187
5.89360531,0.62710675
6.20376423,0.597596739
6.50610975,0.572079299
6.80845527,0.549351844
7.13508791,0.527539687
7.46172054,0.508226611
7.81791292,0.489668713
8.30020017,0.468166762
8.64323673,0.455104135
8.99074149,0.443554788
9.39037196,0.432177343
9.74656434,0.423615164
10.0940691,0.416597987
10.4285694,0.411026179
10.780391,0.40637152
11.1278958,0.402961353
11.6491529,0.400053269
11.9966577,0.399620057
12.3441624,0.400452897
12.7991478,0.40360957
13.2129243,0.408754156
13.5604291,0.415003464
13.9079338,0.423316334
14.0816862,0.428365246
14.3423148,0.437227358
14.6029434,0.447872882
14.7332576,0.453966528
14.9938862,0.467953482
15.1242005,0.475973655
15.2979529,0.487904681
15.5585815,0.508922767
15.7323338,0.525438031
15.81921,0.534581356
15.9735292,0.552498136
16.0798386,0.566251369
16.253591,0.591639105
16.3839053,0.613458627
16.5142195,0.638117811
16.6445338,0.666133371
16.73141,0.686986622
16.8182862,0.709844128
16.9051624,0.734975054
16.9920386,0.762696298
17.0789148,0.793383044
17.165791,0.827482156
17.2526672,0.865529304
17.2961053,0.886230381
17.3829814,0.931454206
17.4698576,0.982515849
17.5567338,1.04048602
17.621891,1.08928579
17.6653291,1.12472138
17.7087672,1.16274719
17.7522052,1.20362621
17.7956433,1.24765586
17.8390814,1.2951736
17.8825195,1.34656352
17.9259576,1.40226434
17.9693957,1.46277901
18.0345529,1.56386726
18.0562719,1.60065509
18.09971,1.67946149
18.1214291,1.72170589
18.1648671,1.81251281
18.2083052,1.91272085
18.2517433,2.02368777
18.2734624,2.08369827
18.3169005,2.21392268
18.3603386,2.35955034
18.4037767,2.52313058
18.4363552,2.65943744
18.4580743,2.75763875
18.4797933,2.8623089
18.5015124,2.97403223
18.5232314,3.0934606
18.5449505,3.22132305
18.5666695,3.35843697
18.5992481,3.58349602
18.6209671,3.74801984
18.6426862,3.92556447
18.6752648,4.21944744
18.6969838,4.43618393
18.7187029,4.67184218
18.7404219,4.9286972
18.762141,5.20937632
18.78386,5.51692677
18.8055791,5.8548987
18.8272981,6.22744807
18.8490171,6.63946494
18.8685643,7.0487846
18.8837676,7.39562807
18.8967991,7.71497603
18.9076586,7.99809593
18.92069,8.36006928
18.9380652,8.8843459
18.9467529,9.16611527
18.9641281,9.77343274
18.9728157,10.1010244
18.990191,10.8098772
19.0032224,11.3937402
19.0162538,12.0280984
19.0292852,12.7189367
19.0423167,13.4731513
19.0553481,14.29872
19.0683795,15.2049119
19.081411,16.2025452
19.0944424,17.3043074
19.1074738,18.5251545
19.1161614,19.4138325
19.124849,20.3693083
19.1378805,21.9429564
19.1465681,23.0973121
19.1552557,24.3466021
19.1595995,25.010115
19.1682871,26.4222166
19.1769748,27.958779
19.1856624,29.6347591
19.19435,31.4674096
19.2030376,33.4767111
19.2117252,35.6859007
19.2204129,38.1221221
19.2291005,40.817232
19.2334443,42.2733558
19.23996,44.6080627
19.2443038,46.2735241
19.2486476,48.0338121
19.2529914,49.8961636
19.2595071,52.8986153
19.263851,55.0525327
19.2703667,58.5369432
19.2747105,61.0454414
19.2812262,65.1186321
19.28557,68.0623119
19.2920857,72.8616712
19.2964295,76.3447801
19.3029452,82.0490564
19.309461,88.4048439
19.3159767,95.5122326
19.3181486,98.0683796
19.3224924,103.490577
19.3246643,106.367511
19.3290081,112.482909
19.33118,115.73449
19.3355238,122.661496
19.3376957,126.352809
19.3420395,134.234868
19.3442114,138.444956
19.3485552,147.45671
19.352899,157.337492
19.3572429,168.19593
19.3615867,180.156786
19.3659305,193.363561
19.3702743,207.981489
19.3735321,219.98447
19.375704,228.531036
19.377876,237.547225
19.3800479,247.064528
19.3822198,257.1167
19.3843917,267.739898
19.3865636,278.972811
19.3887355,290.856783
19.3909074,303.435922
19.3930793,316.757191
19.3952512,330.870462
19.3974231,345.828536
19.400681,369.972213
19.4028529,387.291877
19.4061107,415.262394
19.4082826,435.330688
19.4115405,467.729111
19.4147983,503.077976
19.4180562,541.585331
19.421314,583.431255
19.423486,613.250206
19.4254407,641.423378
19.4289157,694.625919
19.4332595,766.501934
19.4376033,843.531055
19.4480285,1036.98279
19.4515035,1097.75186
19.4541098,1139.48168
19.4558473,1164.77905
19.4575849,1187.6249
19.4593224,1207.66125
19.4610599,1224.55593
19.4627974,1238.01527
19.464535,1247.7962
19.4662725,1253.71684
19.46801,1255.66477
19.4706163,1251.07636
19.4723538,1243.09459
19.4740913,1231.33797
19.4758289,1216.02113
19.4775664,1197.41474
19.4793039,1175.834
19.4810414,1151.62619
19.4836477,1111.19282
19.4871228,1051.53832
19.4992854,826.4323
19.5027605,765.117469
19.504498,735.672865
19.507973,679.543832
19.5097106,652.937567
19.5114481,627.330644
19.51362,596.734256
19.5157919,567.696098
19.5179638,540.18734
19.5212217,501.69623
19.5233936,477.804762
19.5255655,455.257963
19.5288233,423.817673
19.5320812,395.035663
19.535339,368.69204
19.5385969,344.575156
19.5407688,329.635139
19.5440267,308.79258
19.5461986,295.866487
19.5494564,277.809586
19.5516283,266.594387
19.5548862,250.90222
19.5570581,241.139002
19.560316,227.454086
19.5624879,218.923985
19.5657457,206.945146
19.5679176,199.464235
19.5722614,185.604521
19.5766052,173.069177
19.580949,161.70425
19.5852929,151.375983
19.5896367,141.96802
19.5939805,133.37898
19.5983243,125.520362
19.6026681,118.314756
19.60484,114.935292
19.6091838,108.584603
19.6135276,102.732401
19.6178714,97.3294036
19.6200433,94.782549
19.6243871,89.9733167
19.628731,85.5136025
19.6352467,79.4098239
19.6417624,73.9263798
19.6482781,68.9836418
19.6547938,64.5141022
19.6613095,60.4602721
19.6678252,56.7729842
19.672169,54.4973248
19.6786848,51.330021
19.6852005,48.4291277
19.6917162,45.76597
19.69606,44.1101422
19.7025757,41.7893059
19.7069195,40.3420638
19.7156071,37.6639003
19.7242948,35.2436171
19.7286386,34.120059
19.7373262,32.0285332
19.7460138,30.1240263
19.7547014,28.3850689
19.763389,26.7931631
19.7720862,25.3307657
19.7807643,23.9886002
19.7894519,22.74993
19.7981395,21.6056977
19.8068271,20.5466017
19.8155148,19.5644516
19.8242024,18.6520136
19.83289,17.8028806
19.8415776,17.0113612
19.8502652,16.2723867
19.8589529,15.5814315
19.8719843,14.6262891
19.8806719,14.0385574
19.8893595,13.4863821
19.902391,12.7187422
19.9154224,12.0165337
19.9284538,11.3725596
19.945829,10.5938537
19.9545167,10.2351776
19.9718919,9.57231099
19.9805795,9.26571334
19.9979548,8.69689183
20.0066424,8.43279911
20.01533,8.18112674
20.0283614,7.82525312
20.0392209,7.54704366
20.0522524,7.23339396
20.0674557,6.89294789
20.0761433,6.70974642
20.0978624,6.28440793
20.1195814,5.90086395
20.1413005,5.55384215
20.1630195,5.23887494
20.1847386,4.95215664
20.2064576,4.69042938
20.2281767,4.45089123
20.2498957,4.23112183
20.2716148,4.02902178
20.2933338,3.84276292
20.3259124,3.58963616
20.3476314,3.43641159
20.3693505,3.29423458
20.401929,3.0994752
20.4236481,2.98068612
20.4453671,2.86983468
20.4779457,2.71697177
20.5105243,2.57844958
20.5431029,2.45256208
20.5756814,2.33785001
20.6191195,2.20014238
20.6625576,2.07758168
20.6842767,2.02131757
20.7277148,1.91769142
20.7494338,1.86993403
20.7928719,1.78166231
20.8145909,1.74084222
20.8471695,1.68337296
20.8797481,1.63005416
20.9449052,1.53444361
21.0100624,1.45153266
21.0752195,1.3793377
21.1403767,1.31625641
21.2055338,1.26098389
21.2706909,1.21244957
21.3358481,1.16976932
21.3792862,1.1442001
21.4661624,1.09915406
21.5096005,1.07936348
21.5964767,1.04458639
21.6833528,1.01549106
21.770229,0.991361536
21.8136671,0.980974892
21.9005433,0.963254977
21.9874195,0.949274922
22.0742957,0.938710727
22.1611719,0.931310584
22.2914862,0.925743068
22.4218005,0.926465597
22.5235344,0.931282971
22.6544445,0.942995333
22.7853546,0.961145813
22.9162647,0.98622403
23.0035381,1.00716283
23.1344482,1.04569172
23.2217216,1.07673909
23.308995,1.11270473
23.3526317,1.1327405
23.4399051,1.17742228
23.5271785,1.22906653
23.5708152,1.25786122
23.6580886,1.3222788
23.7235436,1.37740828
23.7671804,1.41788026
23.8326354,1.4849262
23.8762721,1.53436867
23.9199088,1.58808965
23.9635455,1.64657037
24.0290005,1.7444492
24.0726372,1.81744084
24.116274,1.89753819
24.1599107,1.98567207
24.2035473,2.08293352
24.247184,2.190608
24.2908207,2.31021836
24.3344574,2.4435793
24.3780941,2.59286709
24.4217308,2.76070943
24.4551705,2.90385753
24.4769888,3.00494186
24.4980951,3.10909599
24.5199134,3.22393546
24.5417318,3.34673073
24.5635501,3.47823372
24.5853685,3.61928757
24.6071868,3.77084018
24.6290052,3.93396026
24.6508235,4.10985624
24.6726419,4.29989878
24.6944602,4.50564761
24.7162786,4.72888363
24.7380969,4.97164769
24.7599153,5.23628735
24.7817336,5.52551389
24.803552,5.842472
24.8253703,6.19082556
24.8471887,6.57486383
24.869007,6.99963386
24.8842799,7.3243628
24.8973709,7.62268402
24.9170074,8.10862185
24.9279166,8.40059121
24.9410076,8.7738976
24.9497349,9.0377924
24.9671896,9.60524724
24.9759169,9.91059705
24.9933716,10.5696037
25.002099,10.9255556
25.0195536,11.696889
25.0326446,12.3333283
25.041372,12.7884142
25.0500993,13.2703966
25.0631903,14.0485793
25.0762813,14.9004212
25.0893724,15.8354926
25.0980997,16.5105531
25.106827,17.2312999
25.119918,18.4074069
25.1286454,19.2618498
25.1373727,20.1789973
25.1504637,21.6861984
25.1591911,22.7892713
25.1679184,23.9807216
25.1766458,25.2701918
25.1853731,26.6686665
25.1941004,28.1887016
25.2028278,29.8446994
25.2115551,31.6532414
25.2202825,33.6334922
25.2290098,35.8076928
25.2377371,38.2017661
25.2464645,40.8460638
25.2551918,43.7762943
25.2595555,45.3615375
25.266101,47.9062361
25.2704647,49.7236732
25.2770102,52.6499886
25.2813738,54.7465355
25.2879193,58.1334363
25.292283,60.56825
25.2988285,64.5158087
25.3031922,67.3642373
25.3097377,72.0006011
25.3162832,77.1269701
25.3228287,82.8131858
25.3293742,89.1416204
25.3359197,96.2098762
25.3381015,98.7498386
25.3424652,104.134154
25.3446471,106.989083
25.3490107,113.053478
25.3511926,116.275669
25.3555562,123.135011
25.3577381,126.78755
25.3621017,134.580766
25.3642836,138.740145
25.3686472,147.636101
25.3730109,157.379132
25.3773746,168.074017
25.3817382,179.841001
25.3861019,192.818295
25.3893747,203.440344
25.3937383,218.932827
25.398102,236.133405
25.4002838,245.446243
25.4024657,255.276761
25.4046475,265.659834
25.4068294,276.63282
25.4090112,288.235692
25.4122839,306.915259
25.4144658,320.286011
25.4166476,334.448853
25.4188294,349.45683
25.4221022,373.676855
25.424284,391.049279
25.4275568,419.103971
25.4297386,439.233637
25.4330114,471.736624
25.4362841,507.213038
25.4395569,545.883574
25.4428296,587.946266
25.4450115,617.951465
25.4471933,649.563768
25.4506842,703.503481
25.4550479,776.570036
25.4576661,823.157537
25.4602843,871.473163
25.4716299,1087.49088
25.4751208,1148.99166
25.477739,1190.65099
25.4794845,1215.57783
25.4812299,1237.78521
25.4829754,1256.91489
25.4847209,1272.6419
25.4864663,1284.68739
25.4882118,1292.8305
25.49083,1297.41383
25.4925755,1295.29646
25.4943209,1289.07586
25.4960664,1278.86915
25.4978119,1264.86516
25.4995573,1247.31586
25.5013028,1226.52537
25.5030483,1202.83747
25.5047937,1176.62246
25.5074119,1133.40204
25.5109029,1070.49725
25.520503,886.840454
25.5257394,790.784477
25.5292303,730.881992
25.5327212,674.893442
25.5366485,616.828775
25.5399213,572.423066
25.543194,531.523068
25.5453759,506.120412
25.5486486,470.660952
25.5508305,448.68838
25.5530123,427.970339
25.5551941,408.438767
25.557376,390.026568
25.5595578,372.66837
25.5617396,356.301068
25.5639215,340.864194
25.5661033,326.300144
25.5682851,312.554307
25.570467,299.575101
25.5726488,287.313965
25.5748306,275.725289
25.5770125,264.766332
25.5802852,249.421848
25.5824671,239.867902
25.5846489,230.814858
25.5890126,214.087906
25.5933762,199.014387
25.5955581,192.035142
25.5999218,179.081245
25.6021036,173.066882
25.6064673,161.873958
25.6086491,156.663225
25.6130128,146.940702
25.6151946,142.402759
25.6195583,133.914453
25.6217401,129.942743
25.6261038,122.495893
25.6282856,119.003247
25.6326493,112.439797
25.6348311,109.354568
25.6391948,103.544287
25.6413766,100.807287
25.6457403,95.642325
25.6522858,88.5950066
25.6566495,84.3134627
25.6610131,80.3301241
25.6653768,76.6185297
25.6719223,71.5095917
25.676286,68.3791686
25.6806496,65.4478385
25.6850133,62.6993646
25.689377,60.1191025
25.6937407,57.6938204
25.6981043,55.4115408
25.702468,53.2614039
25.7068317,51.2335458
25.7111953,49.3189933
25.715559,47.5095702
25.7199227,45.7978152
25.7264682,43.3985526
25.7351955,40.4824154
25.7439229,37.8513722
25.7526502,35.4697886
25.7613775,33.3073786
25.7701049,31.3382784
25.7788322,29.5402994
25.7831959,28.6994003
25.7919232,27.1230803
25.7962869,26.3838136
25.8050142,24.9944036
25.8093779,24.3411343
25.8181052,23.1103968
25.8224689,22.5303675
25.8355599,20.9178955
25.8486509,19.4759479
25.8617419,18.1814282
25.874833,17.015005
25.8835603,16.3004084
25.8966513,15.3125605
25.9097423,14.4147272
25.9228333,13.5963452
25.9315607,13.0903673
25.9446517,12.3848913
25.953379,11.9471741
25.9708337,11.1416818
25.9882884,10.4188495
25.9970157,10.0849568
26.0144704,9.46625513
26.0319251,8.90613833
26.0406524,8.64577553
26.0537434,8.27760747
26.0711981,7.82479754
26.0930165,7.31306081
26.112653,6.8977021
26.1344713,6.47999168
26.1562897,6.10267446
26.1671988,5.9275648
26.1890172,5.60167433
26.1999264,5.44991141
26.2217447,5.16656461
26.2326539,5.03420129
26.2544722,4.78635136
26.2653814,4.67023987
26.2981089,4.34984495
26.3308365,4.06638869
26.363564,3.81445661
26.3962915,3.58959075
26.4290191,3.38809401
26.4617466,3.20687965
26.4944741,3.04335429
26.5272016,2.89532636
26.54902,2.80431945
26.5817475,2.67811865
26.6035658,2.60023834
26.6472025,2.45781863
26.6690209,2.39263107
26.7126576,2.27289375
26.734476,2.21785429
26.7781127,2.11636289
26.8217493,2.02509522
26.8435677,1.98289036
26.8872044,1.90463791
26.9308411,1.83378305
26.9962961,1.7395433
27.0399328,1.68371655
27.1053879,1.60900548
27.170843,1.54367428
27.236298,1.48636274
27.2799347,1.45204978
27.3672081,1.39151746
27.4108448,1.36482692
27.4981182,1.31760872
27.5417549,1.29674819
27.6290283,1.25981838
27.672665,1.24350883
27.7599384,1.21468604
27.8472118,1.19034981
27.9344852,1.16991765
28.0217586,1.15290774
28.109032,1.13891923
28.1963054,1.12761693
28.2835788,1.11871928
28.4581256,1.10722492
28.6326724,1.10294067
28.7199458,1.10315267
28.8944926,1.10775917
29.0690394,1.11741586
29.3308596,1.14038209
29.5926798,1.17268178
29.8545,1.21383817
30.1163202,1.26377455
30.3781404,1.32274321
30.6399606,1.39129214
30.8363257,1.44948358
30.9890542,1.49908468
31.2508744,1.5937792
31.4254212,1.66436512
31.599968,1.74158091
31.7614901,1.81952737
31.8936048,1.88836428
32.031824,1.96572431
32.2391528,2.09310123
32.377372,2.18642427
32.5155912,2.28725141
32.6538104,2.39635392
32.8611392,2.57747981
32.9993584,2.71139471
33.068468,2.7827482
33.2066872,2.93510341
33.3449064,3.10161836
33.414016,3.19072835
33.5522352,3.38189153
33.6213448,3.48450058
33.759564,3.70533919
33.8286736,3.82427547
33.9668928,4.08118417
34.0360024,4.22006586
34.1742216,4.52127689
34.277886,4.77006383
34.3815504,5.04104555
34.45066,5.23535327
34.5197696,5.44162869
34.5888792,5.66087348
34.6925436,6.01651703
34.7616532,6.27330744
