energy [eV],cross section [b]
1e-05,124.794548
1.06062793e-05,121.175295
1.15156982e-05,116.29217
1.21219775e-05,113.346699
1.28017717e-05,110.296206
1.39317354e-05,105.728727
1.54383536e-05,100.437321
1.68423467e-05,96.1599683
1.77783421e-05,93.5944256
1.87143375e-05,91.2238472
2.03453204e-05,87.4909929
2.20897983e-05,83.9652793
2.38342762e-05,80.8341039
2.52792989e-05,78.4897776
2.67243217e-05,76.3382615
2.88918559e-05,73.4189029
3.14098251e-05,70.4146219
3.32052828e-05,68.4844573
3.67961983e-05,65.0570152
4.01425142e-05,62.2864134
4.23733915e-05,60.6246153
4.46042688e-05,59.0891029
4.7105653e-05,57.4988414
4.98775441e-05,55.8782861
5.40353808e-05,53.6854377
5.85293256e-05,51.5832672
6.36954864e-05,49.4471512
6.88616473e-05,47.5561733
7.27233727e-05,46.2762968
7.70027162e-05,44.9720392
8.34217316e-05,43.2071879
8.77010751e-05,42.1398652
9.30182097e-05,40.9177375
9.83353442e-05,39.7961243
0.000103652479,38.7619621
0.000108969613,37.8044473
0.000115576215,36.7080541
0.000122182817,35.7018342
0.000128789419,34.7740683
0.000139500411,33.4124137
0.000151813581,32.0287713
0.000168231142,30.425827
0.000178430648,29.5434263
0.000193729906,28.3528846
0.000209029164,27.2955682
0.00022170217,26.5039503
0.000234375175,25.7774393
0.000253384683,24.7916479
0.000267594364,24.1244317
0.000283340722,23.4445053
0.000299087079,22.819007
0.000314833436,22.2410425
0.000332489132,21.6424706
0.000352054165,21.0324961
0.000371619199,20.4713501
0.000391184233,19.9528475
0.000425276533,19.1363823
0.000461741208,18.3652238
0.000498205883,17.6803603
0.000543513669,16.9274015
0.000588821455,16.2631141
0.000637791797,15.6262961
0.0006753221,15.1858823
0.000712852403,14.7807236
0.000769147858,14.2295307
0.0008157797,13.8168499
0.000862411541,13.4381103
0.000955675224,12.7655727
0.00104258614,12.2219212
0.00110052675,11.8958408
0.00115846736,11.5945403
0.00125942955,11.1200946
0.00136741737,10.6719764
0.0014754052,10.274004
0.00160958134,9.83646159
0.0016990321,9.57402503
0.00183320825,9.21699665
0.00194435186,8.94968774
0.00211106729,8.58903256
0.00227778272,8.26873579
0.00241587997,8.02892802
0.00255397721,7.80884334
0.00269207446,7.60591844
0.00283017171,7.4180334
0.00300175916,7.2028974
0.00325914033,6.91263428
0.00343072778,6.73754929
0.00362312121,6.55622159
0.00394292033,6.28472104
0.00426271945,6.04437752
0.00463422193,5.79704252
0.0048991247,5.63813684
0.00529647885,5.42252018
0.00575807503,5.20063133
0.00608721982,5.05807406
0.00658093701,4.86464031
0.00694999254,4.73371793
0.0073589588,4.6003015
0.00776792507,4.47756507
0.00817689133,4.36415577
0.00863544714,4.24670283
0.0093976652,4.07084143
0.0104139559,3.86710662
0.0113610208,3.70241581
0.0123080857,3.55711961
0.0133317086,3.4178316
0.0141162014,3.32150204
0.0152929406,3.19115402
0.0165648042,3.06619605
0.0175395456,2.97977694
0.0185142871,2.90027566
0.0199763993,2.79211914
0.0211875271,2.71114179
0.0223986548,2.63682442
0.0248209102,2.50485712
0.0273776019,2.38502929
0.0301477377,2.27281262
0.0317751625,2.21384319
0.0336449443,2.15144652
0.036449617,2.06701462
0.0394810117,1.98607403
0.0418042374,1.93009667
0.0452890761,1.85435104
0.0490556195,1.78173752
0.0519422547,1.73151902
0.0548288899,1.68532048
0.0591588428,1.6224702
0.0627455209,1.57541382
0.066332199,1.53222756
0.0735055551,1.45554049
0.0801902894,1.3935497
0.084646779,1.35636774
0.0891032685,1.32201132
0.0968687537,1.26791153
0.105174614,1.21681365
0.113480475,1.17143366
0.123800604,1.12154141
0.134120733,1.07752452
0.145275113,1.03532763
0.153823701,1.0061448
0.162372289,0.979297966
0.17519517,0.942774414
0.18581689,0.915428939
0.19643861,0.890332413
0.217682051,0.845767631
0.237478469,0.809743052
0.25067608,0.788135499
0.263873692,0.768169885
0.286870685,0.736730638
0.311467966,0.707035747
0.336065247,0.680663578
0.366627657,0.65166897
0.397190067,0.626088612
0.430223057,0.60156577
0.455539158,0.584605962
0.48085526,0.569003651
0.518829412,0.547777458
0.550284964,0.53188511
0.581740517,0.517299675
0.644651621,0.491399527
0.70327746,0.470462478
0.742361352,0.457904286
0.781445245,0.446300275
0.849549385,0.428027568
0.922392676,0.410768411
0.995235967,0.395440217
1.08574461,0.378587477
1.17625325,0.363718915
1.27407836,0.349464725
1.3490504,0.33960644
1.42402243,0.330537075
1.53648048,0.318198377
1.62963411,0.308960002
1.72278773,0.300481167
1.90909499,0.285424364
2.0827117,0.273252307
2.19845618,0.265951178
2.31420065,0.259204616
2.51588675,0.248580497
2.73160755,0.2385452
2.94732835,0.22963222
3.21536397,0.219832217
3.48339959,0.211185504
3.77310247,0.202895552
3.9951274,0.197161839
4.21715233,0.191886709
4.55018972,0.184709551
4.8260583,0.179335417
5.10192688,0.174402818
5.65366403,0.165642659
6.16781894,0.158560028
6.51058888,0.154311268
6.85335881,0.150384932
7.45063945,0.14420132
8.08948294,0.138359634
8.72832644,0.133170544
9.52209696,0.127464154
10.3158675,0.122428448
11.1738042,0.117599665
11.831317,0.114259317
12.4888298,0.111185706
13.475099,0.107003142
14.2920663,0.103870722
15.1090337,0.100995174
16.7429683,0.0958870221
18.2656056,0.0917557377
19.280697,0.089276814
20.2957885,0.086985549
22.0645973,0.0833760509
23.9564919,0.0799649447
25.8483865,0.0769338221
28.1990877,0.0735992222
30.5497889,0.0706552893
33.0905143,0.0678311032
35.0376968,0.0658766869
36.9848793,0.0640777419
39.9056531,0.0616287594
42.3250502,0.0597938632
44.7444472,0.0581087948
47.1638443,0.0565541265
49.5832414,0.055113788
54.0924352,0.0526898803
57.0985644,0.0512346786
60.1046936,0.0498890971
65.342909,0.0477682543
70.9456351,0.0457626689
76.5483613,0.0439793732
83.5098141,0.042016262
90.471267,0.0402820049
97.9954645,0.0386172816
103.761922,0.0374646749
109.52838,0.0364033558
118.178067,0.0349579518
125.342958,0.0338745822
132.50785,0.0328794115
139.672741,0.0319610698
146.837632,0.0311101479
160.191325,0.0296780431
169.093786,0.028818313
177.996247,0.0280234613
193.508891,0.0267710893
210.10101,0.025587609
226.693129,0.0245363678
240.437064,0.023749395
261.052966,0.0226881192
281.668868,0.0217465669
298.745868,0.0210425762
315.822868,0.0203974976
341.438368,0.0195242988
360.586054,0.0189350797
381.804427,0.0183365422
403.022799,0.0177880012
424.241172,0.017283293
461.214434,0.0164937206
500.760549,0.0157553041
527.124625,0.0153142116
551.729998,0.0149345551
574.576666,0.0146068319
607.33434,0.0141741618
650.003019,0.0136683362
680.868679,0.0133380693
716.5,0.0129895106
768.7,0.0125344538
814.472266,0.0121828694
866.672266,0.0118288839
925.3,0.0114835737
977.5,0.0112172752
1020.01718,0.0110263038
1072.21718,0.0108213346
1128.88,0.0106337273
1191.52,0.0104678771
1254.16,0.0103483381
1287.78182,0.0103062655
1307.1952,0.0102903964
1358.56,0.0102868792
1389.88,0.0103231564
1421.2,0.0104061836
1442.08,0.010501723
1462.96,0.010647746
1476.9496,0.0107875751
1485.7192,0.0108993999
1498.456,0.0111071726
1510.984,0.0113846208
1519.336,0.011626743
1523.512,0.0117704664
1529.776,0.0120216383
1533.952,0.0122177313
1540.216,0.0125658032
1544.392,0.0128422107
1548.568,0.0131628251
1552.744,0.0135374585
1556.92,0.0139788085
1559.008,0.0142295158
1562.14,0.014650201
1564.228,0.0149648985
1566.838,0.0154032888
1569.97,0.016007141
1571.536,0.0163462968
1573.885,0.0169095188
1575.451,0.0173262775
1577.017,0.0177806889
1578.844,0.0183646821
1580.932,0.0191138992
1583.02,0.0199655633
1584.064,0.0204357363
1586.152,0.021479129
1587.196,0.0220591639
1588.762,0.0230134211
1590.328,0.0240831785
1591.894,0.0252878208
1593.46,0.0266509756
1595.026,0.0282016769
1596.592,0.0299759213
1597.114,0.0306244894
1598.158,0.0320187705
1599.202,0.033557445
1600.084,0.0349850184
1600.768,0.0361823301
1601.812,0.0381808002
1602.334,0.0392660292
1603.378,0.0416313241
1603.9,0.0429219188
1604.683,0.045009679
1605.205,0.046512832
1605.988,0.0489541659
1606.51,0.0507191891
1607.293,0.0535985847
1607.815,0.0556899541
1608.598,0.0591187106
1609.12,0.061622022
1609.903,0.06574914
1610.425,0.0687799833
1611.208,0.0738085844
1611.73,0.0775260879
1611.991,0.0795072091
1612.513,0.0837388199
1612.774,0.0860002905
1613.296,0.0908452673
1613.557,0.093442531
1614.079,0.0990252791
1614.601,0.105184962
1614.862,0.1085063
1615.384,0.115690222
1615.645,0.119579317
1616.167,0.128027545
1616.428,0.132621404
1616.8195,0.140029928
1617.211,0.148128168
1617.6025,0.157004385
1617.994,0.166761413
1618.3855,0.17751964
1618.777,0.189420731
1619.1685,0.202632294
1619.56,0.217353801
1619.9515,0.233824129
1620.082,0.239751004
1620.343,0.252331276
1620.4735,0.25901133
1620.7345,0.273224986
1620.865,0.280791246
1621.126,0.29693332
1621.387,0.314558525
1621.648,0.33385398
1621.7785,0.344194686
1622.0395,0.366414548
1622.3005,0.39091934
1622.5615,0.418032812
1622.7964,0.444980532
1623.0574,0.478165715
1623.2662,0.507517409
1623.4228,0.531375132
1623.5272,0.548243339
1623.736,0.58452268
1623.8404,0.604048701
1624.0492,0.646198422
1624.258,0.692980643
1624.4146,0.731524957
1624.5712,0.773412982
1624.6756,0.803389542
1624.8322,0.85176167
1624.9888,0.904675541
1625.1454,0.962715613
1625.302,1.02656305
1625.4586,1.09701546
1625.6152,1.17501156
1625.7718,1.26166197
1625.9284,1.35828826
1626.085,1.46647255
1626.1372,1.50542113
1626.2416,1.58812126
1626.346,1.67782315
1626.4504,1.77533388
1626.5026,1.82730168
1626.607,1.93830443
1626.7114,2.05970126
1626.8158,2.19281881
1626.868,2.26424547
1626.9724,2.41791636
1627.0768,2.58766838
1627.1812,2.77579774
1627.2856,2.98501986
1627.3378,3.09852646
1627.39,3.21856305
1627.4422,3.34563276
1627.4944,3.48028734
1627.5466,3.62313282
1627.6249,3.85423563
1627.6771,4.02062584
1627.7293,4.19785599
1627.7815,4.38686949
1627.8598,4.69480285
1627.912,4.91810848
1627.9903,5.283509
1628.0425,5.54969085
1628.1208,5.98735197
1628.173,6.30776023
1628.1991,6.47743396
1628.2513,6.83737179
1628.2774,7.02835938
1628.3296,7.43435709
1628.3557,7.65023923
1628.4079,8.11016882
1628.434,8.35527264
1628.4862,8.87867148
1628.5123,9.15825253
1628.5645,9.75673307
1628.5906,10.0772057
1628.6428,10.7649741
1628.6689,11.1342027
1628.7211,11.9287134
1628.7472,12.3563787
1628.7994,13.2791537
1628.8516,14.3018546
1628.8777,14.8548478
1628.9038,15.4380744
1628.9299,16.0535574
1628.956,16.7034662
1628.9821,17.3901259
1629.0082,18.1160254
1629.0343,18.8838268
1629.0604,19.6963726
1629.0865,20.5566929
1629.1126,21.46801
1629.1387,22.4337413
1629.1648,23.4574983
1629.1909,24.5430814
1629.217,25.6944689
1629.2431,26.9157975
1629.28225,28.8882885
1629.30835,30.303313
1629.3475,32.5868072
1629.3736,34.2226108
1629.41275,36.8562641
1629.4519,39.7155198
1629.49888,43.4540506
1629.54064,47.0586743
1629.5824,50.9150185
1629.64504,57.0982006
1629.75988,68.9176226
1629.80164,72.9647312
1629.83296,75.7448167
1629.85384,77.430713
1629.87472,78.9537636
1629.8956,80.2901394
1629.91648,81.4177216
1629.93736,82.3169483
1629.95824,82.9716188
1629.97912,83.3695995
1630.0,83.5033747
1630.03132,83.2044735
1630.0522,82.6776972
1630.07308,81.8997383
1630.09396,80.884839
1630.11484,79.6509717
1630.13572,78.2190775
1630.1566,76.6122325
1630.18792,73.927386
1630.22968,69.964729
1630.37584,55.0029349
1630.4176,50.9260161
1630.43848,48.9680028
1630.48024,45.2351873
1630.51156,42.605672
1630.53505,40.7317974
1630.56115,38.7485483
1630.58725,36.8680119
1630.6264,34.2343488
1630.6525,32.598513
1630.6786,31.0541335
1630.71775,28.8998426
1630.7569,26.9272228
1630.79605,25.1215702
1630.8352,23.4686085
1630.8613,22.4447345
1630.90045,21.0165781
1630.92655,20.1310487
1630.9657,18.8943192
1630.9918,18.1263882
1631.03095,17.0522179
1631.05705,16.384104
1631.08315,15.7515588
1631.10925,15.1523366
1631.1484,14.3114403
1631.1745,13.7866681
1631.2267,12.8152625
1631.2789,11.937682
1631.3311,11.1429366
1631.3833,10.4214821
1631.4355,9.76502108
1631.4877,9.16632947
1631.5399,8.61910673
1631.5921,8.11784716
1631.6182,7.88292291
1631.6704,7.44175638
1631.7226,7.0355817
1631.7748,6.66090654
1631.8009,6.48440373
1631.8531,6.15131274
1631.9053,5.84266986
1631.9836,5.42063578
1632.0619,5.04189328
1632.1402,4.70083602
1632.2185,4.39271792
1632.2968,4.11350301
1632.3751,3.85974412
1632.4273,3.70323609
1632.5056,3.48553941
1632.5578,3.3507884
1632.6361,3.16271524
1632.6883,3.04591517
1632.7666,2.8823849
1632.8188,2.78051743
1632.9232,2.59223271
1633.0276,2.42233484
1633.0798,2.34354891
1633.1842,2.19703453
1633.2886,2.06379149
1633.3408,2.00165544
1633.4452,1.88549425
1633.5496,1.7791399
1633.654,1.68152594
1633.7584,1.59172614
1633.8628,1.50893302
1633.9672,1.43244017
1634.0716,1.36162755
1634.176,1.29594915
1634.2804,1.23492271
1634.437,1.15118419
1634.5414,1.10002129
1634.6458,1.05221054
1634.8024,0.986163472
1634.9068,0.945548059
1635.0112,0.907407614
1635.1678,0.854413107
1635.2722,0.82164179
1635.3766,0.790736613
1635.5332,0.74757806
1635.742,0.695372788
1635.8464,0.671319772
1636.0552,0.626854591
1636.1596,0.606281752
1636.3684,0.56810194
1636.4728,0.550370198
1636.5772,0.533468787
1636.7338,0.509563145
1636.8643,0.490868872
1637.0209,0.469786668
1637.2558,0.440667423
1637.4385,0.419887395
1637.569,0.405950601
1637.83,0.380125341
1638.091,0.356744008
1638.352,0.335508013
1638.613,0.316162961
1638.874,0.29849104
1639.135,0.282304887
1639.2655,0.274717509
1639.5265,0.260463332
1639.7875,0.247329379
1640.179,0.229482769
1640.5705,0.21357477
1640.962,0.199334581
1641.3535,0.186537056
1641.745,0.174993778
1642.1365,0.164546102
1642.528,0.155059681
1642.9195,0.146420141
1643.311,0.138529617
1643.7025,0.131303981
1644.094,0.124670586
1644.616,0.116639651
1644.877,0.112936713
1645.399,0.106086437
1645.921,0.0998974
1646.182,0.0970245677
1646.704,0.0916767908
1647.226,0.0868067967
1647.487,0.084533377
1648.009,0.0802789065
1648.531,0.0763781982
1648.792,0.0745483725
1649.314,0.071108344
1650.097,0.0664412728
1650.619,0.0636203529
1651.141,0.0610054299
1651.663,0.0585769197
1652.446,0.0552463543
1652.968,0.0532123629
1653.49,0.0513122264
1654.012,0.0495344487
1654.534,0.0478687418
1655.056,0.046305877
1656.1,0.0434563019
1657.144,0.0409286251
1658.188,0.0386761107
1659.232,0.0366602079
1660.276,0.0348488894
1661.32,0.0332153698
1662.364,0.031737109
1663.408,0.0303950295
1664.452,0.0291728971
1665.496,0.0280568271
1666.54,0.027034888
1667.584,0.0260967804
1668.628,0.0252335764
1669.672,0.0244375063
1670.716,0.0237017825
1671.76,0.0230204544
1672.804,0.0223882876
1674.892,0.0212534903
1676.98,0.020266382
1679.068,0.0194024023
1681.156,0.0186418943
1682.983,0.0180487668
1685.332,0.0173706977
1686.898,0.0169645012
1690.03,0.0162453137
1693.162,0.0156303695
1695.772,0.0151835687
1697.86,0.0148626251
1700.992,0.0144332853
1705.168,0.0139422587
1707.256,0.0137261098
1711.432,0.0133427494
1717.696,0.0128674788
1723.96,0.0124845675
1730.224,0.0121717645
1736.488,0.0119131562
1744.6312,0.0116392514
1753.192,0.011409119
1761.544,0.0112278191
1770.0004,0.0110776847
1783.0504,0.0108957045
1791.82,0.0107992844
1811.5516,0.0106367052
1838.8,0.0104956569
1870.12,0.0104067435
1909.5832,0.0103614663
1964.08,0.0103724708
2028.7036,0.010455147
2091.9961,0.0105885503
2158.525,0.0107756197
2230.3,0.0110283635
2302.075,0.011335251
2373.85,0.0117006361
2439.1,0.0120893421
2501.30805,0.0125167065
2563.39164,0.0130064163
2628.325,0.0135969061
2688.8125,0.0142313525
2748.0625,0.0149461187
2804.215,0.0157245713
2836.48,0.0162235666
2868.745,0.0167654785
2901.01,0.0173552095
2922.52,0.0177776907
2954.785,0.0184601453
2976.295,0.0189507412
3008.56,0.0197461997
3030.07,0.0203202948
3060.45738,0.0211981393
3088.28369,0.0220786383
3116.11,0.0230419574
3142.9975,0.0240616262
3169.885,0.0251801768
3196.7725,0.0264110087
3223.66,0.0277699002
3250.5475,0.0292755305
3277.435,0.0309501404
3304.3225,0.0328203736
3331.21,0.0349183565
3358.0975,0.0372830972
3368.8525,0.038314031
3384.985,0.0399623132
3401.1175,0.0417447155
3417.25,0.0436762884
3428.005,0.0450552735
3444.1375,0.0472749313
3460.27,0.0496954846
3476.4025,0.0523419375
3492.535,0.0552432517
3508.6675,0.0584331055
3524.8,0.0619508231
3540.9325,0.065842517
3557.065,0.0701625005
3573.1975,0.0749750402
3589.33,0.0803565417
3605.4625,0.0863982856
3610.84,0.0885772577
3621.595,0.0932098661
3632.35,0.098242824
3643.105,0.103721994
3648.4825,0.106644964
3659.2375,0.112893723
3669.9925,0.119733633
3680.7475,0.127237806
3688.81375,0.133351866
3699.56875,0.142227794
3710.32375,0.152029943
3721.07875,0.162881537
3731.83375,0.174924427
3742.58875,0.188321788
3747.96625,0.195585921
3753.34375,0.20326098
3758.72125,0.21137463
3766.7875,0.224432555
3772.165,0.233776026
3777.5425,0.243669871
3782.92,0.254150444
3790.98625,0.271055676
3796.36375,0.28317454
3804.43,0.302732123
3811.37079,0.32098588
3817.87375,0.339374032
3825.94,0.364030044
3834.00625,0.390861274
3842.0725,0.419985905
3851.752,0.458073333
3860.356,0.494820336
3868.96,0.534180259
3881.866,0.597451084
3907.678,0.73023339
3916.282,0.771760401
3922.735,0.800192769
3927.037,0.817380326
3931.339,0.832856155
3935.641,0.846374828
3939.943,0.857709124
3944.245,0.866658778
3948.547,0.873058777
3952.849,0.876786609
3956.5057,0.877797285
3959.302,0.87721942
3963.604,0.874054836
3967.906,0.868185634
3972.208,0.859717852
3976.51,0.848802585
3980.812,0.835629319
3985.114,0.820417962
3989.416,0.803410161
3995.869,0.7750885
4004.473,0.733432444
4032.436,0.587938826
4045.342,0.524294923
4053.946,0.48483814
4058.248,0.466117502
4067.9275,0.426548758
4073.305,0.406098501
4078.6825,0.386724862
4086.74875,0.359621082
4092.12625,0.342803329
4097.50375,0.32693814
4105.57,0.304828103
4113.63625,0.284604804
4121.7025,0.26611316
4129.76875,0.249203264
4135.14625,0.23873832
4143.2125,0.224154223
4148.59,0.215119553
4156.65625,0.202513279
4162.03375,0.194692937
4170.1,0.183764399
4175.4775,0.176973756
4180.855,0.170549814
4186.2325,0.164469316
4196.9875,0.153253402
4202.365,0.148078965
4213.12,0.138509421
4223.875,0.129875734
4234.63,0.122068443
4245.385,0.11499254
4256.14,0.10856546
4266.895,0.102715339
4277.65,0.0973795087
4288.405,0.0925032186
4299.16,0.0880385297
4309.915,0.0839433779
4320.67,0.0801807723
4336.8025,0.0750901256
4347.34,0.0720840385
4357.64583,0.0693618908
4367.9375,0.0668395177
4378.22917,0.0644962506
4388.52084,0.0623170514
4397.23,0.0605910585
4415.04667,0.0573655251
4430.4759,0.0548690319
4438.77847,0.053628033
4457.80667,0.0510268238
4468.78174,0.0496667549
4483.03507,0.0480384484
4502.77594,0.0460160967
4521.94667,0.0442830115
4541.61627,0.0427147099
4564.70667,0.0411154268
4586.08667,0.0398445254
4610.95873,0.0386000524
4635.97333,0.0375971924
4657.35333,0.0369615239
4674.45733,0.0366561606
4688.71067,0.0366377115
4694.412,0.0367343581
4700.11333,0.036928204
4702.964,0.0370757558
4707.95267,0.0374498469
4712.22867,0.0379388758
4715.792,0.0385262609
4718.64267,0.0391692083
4720.068,0.0395689999
4721.49333,0.0400352054
4722.91867,0.0405820781
4724.344,0.0412279377
4725.76933,0.0419966458
4727.19467,0.0429197458
4728.62,0.0440396328
4730.04533,0.0454143611
4731.11433,0.0466603234
4732.18333,0.0481410588
4733.25233,0.0499182938
4734.32133,0.0520754768
4735.034,0.0537797708
4735.39033,0.0547276377
4736.103,0.0568481841
4736.45933,0.0580368917
4737.172,0.0607197647
4737.52833,0.0622376054
4737.88467,0.0638917794
4738.2161,0.0655673727
4738.59733,0.0676787683
4738.95367,0.0698535547
4739.31,0.072249781
4739.66633,0.0748984519
4740.02267,0.0778361922
4740.379,0.0811065155
4740.73533,0.0847614377
4741.09167,0.0888635507
4741.448,0.0934887102
4741.80433,0.0987295547
4742.16067,0.104700163
4742.33883,0.108002134
4742.517,0.111542292
4742.69517,0.115344066
4742.87333,0.119433836
4743.14058,0.126174707
4743.31875,0.131123599
4743.49692,0.136483464
4743.67508,0.142301019
4743.85325,0.148629799
4744.03142,0.155531397
4744.20958,0.163076951
4744.38775,0.171348985
4744.56592,0.180443653
4744.74408,0.190473538
4744.92225,0.201571125
4745.0826,0.212600814
4745.26077,0.226183404
4745.4033,0.238196865
4745.58147,0.254865575
4745.724,0.269714186
4745.79527,0.277705844
4745.9378,0.294956841
4746.00907,0.304276472
4746.1516,0.324475622
4746.22287,0.335433465
4746.32977,0.353067836
4746.40103,0.365695934
4746.50793,0.386087708
4746.61483,0.408413728
4746.72173,0.432925522
4746.82863,0.459916684
4746.93553,0.48973157
