energy [eV],cross section [b]
1e-05,41.3392307
1.06174487e-05,40.1192037
1.15436219e-05,38.4761266
1.21610706e-05,37.4866375
1.2854768e-05,36.4611424
1.36247139e-05,35.4159339
1.43946598e-05,34.4557487
1.51646058e-05,33.5696515
1.60296321e-05,32.6513106
1.74697923e-05,31.2765273
1.84298991e-05,30.4509551
1.93900059e-05,29.6874864
2.11858561e-05,28.4013767
2.29817064e-05,27.269129
2.49254026e-05,26.1843208
2.64183283e-05,25.4337114
2.79112539e-05,24.744161
3.01506423e-05,23.8075182
3.20122899e-05,23.1048972
3.48047614e-05,22.158639
3.6666409e-05,21.5887862
3.87579511e-05,20.9981973
4.10793875e-05,20.3962553
4.34008239e-05,19.8432788
4.57222604e-05,19.33297
4.83303704e-05,18.8040919
5.26725459e-05,18.0123458
5.55673295e-05,17.5368937
5.84621132e-05,17.0972074
6.3876717e-05,16.356529
6.92913208e-05,15.7044607
7.51516899e-05,15.079713
7.96529566e-05,14.6474325
8.41542232e-05,14.2503162
9.09061231e-05,13.7108979
9.65191103e-05,13.3062542
0.000104938591,12.7612984
0.000110551578,12.4331167
0.000116857712,12.092993
0.000123856992,11.746331
0.000130856272,11.4278685
0.000137855552,11.1339786
0.000145719171,10.8293944
0.000158811109,10.3734231
0.000171903047,9.97058765
0.000187150612,9.55579737
0.00020347599,9.16444117
0.000219801368,8.81753907
0.000233372976,8.55731106
0.000253730388,8.20684779
0.0002740878,7.89619359
0.000291011317,7.66315688
0.000307934834,7.44960528
0.000324858351,7.25296648
0.000341781868,7.07111979
0.000362885146,6.86243316
0.000394540064,6.5813835
0.000415643343,6.41213059
0.00043935266,6.23671884
0.000478825694,5.97412231
0.000518298728,5.74212707
0.000564271115,5.50324699
0.000613493179,5.27786274
0.000662715243,5.07807987
0.000703634513,4.92821311
0.000765013417,4.72637937
0.000826392322,4.54747191
0.000877417812,4.41326481
0.000928443303,4.29027929
0.000979468794,4.17703395
0.00103049428,4.07230748
0.00109412202,3.95212375
0.00115774977,3.84198907
0.00122137751,3.74057681
0.00132467649,3.59177166
0.00144369022,3.44054101
0.00156270396,3.30693382
0.00170131366,3.16936163
0.00184972134,3.03956179
0.00199812902,2.92450593
0.00212150325,2.838197
0.00224487748,2.75910471
0.00242993882,2.65196025
0.00264547106,2.54163613
0.00279931619,2.47080829
0.00295316132,2.40558988
0.00310700646,2.34527753
0.00339476904,2.24367772
0.00358661077,2.18284878
0.00377845249,2.12671342
0.0039939847,2.06853541
0.0042332074,2.00923906
0.00459204145,1.92914035
0.00498041705,1.85239772
0.00542787575,1.77440424
0.00587533445,1.70549968
0.00621047796,1.65884476
0.00658245917,1.611293
0.007140431,1.54705917
0.00774433869,1.4855167
0.00820819164,1.44293379
0.0086720446,1.40381486
0.00913589755,1.36771438
0.00965703159,1.33030031
0.0102354467,1.29216706
0.0111030694,1.24065594
0.0116814845,1.20955164
0.0124027563,1.17385651
0.013484664,1.12578401
0.0145665717,1.08317216
0.0159156884,1.03625044
0.0168150996,1.00815793
0.0181642163,0.96999889
0.0192857636,0.941374028
0.0209680845,0.90282348
0.0226504054,0.868652006
0.0239752027,0.844313876
0.0253,0.821913405
0.0267722956,0.798996566
0.0282445911,0.77789587
0.0299885499,0.754941032
0.032604488,0.724026642
0.0343484467,0.705409557
0.0363077665,0.686115102
0.0395697877,0.657230901
0.0428318089,0.631712856
0.0466309317,0.605437719
0.0493427141,0.588569255
0.0534103877,0.565718103
0.0581478159,0.542189028
0.0615293529,0.527083544
0.0666016585,0.50662068
0.0704007807,0.492765504
0.074617488,0.478644108
0.0788341954,0.465671549
0.0830509027,0.453700065
0.0877883302,0.441293077
0.0956755517,0.422719708
0.100933699,0.411566362
0.106191847,0.401252142
0.11602705,0.383877492
0.125862254,0.368581766
0.136507155,0.353927237
0.148771452,0.339034211
0.161035749,0.325877075
0.1753194,0.312329873
0.185514951,0.303632831
0.200808278,0.291851478
0.212262876,0.283874614
0.224976519,0.275744624
0.237690163,0.268276185
0.250403806,0.261384205
0.264687454,0.254241649
0.288467934,0.243549479
0.304321586,0.237129
0.320175239,0.231191709
0.349829009,0.221190478
0.379482779,0.212386312
0.411577841,0.203951606
0.448555484,0.195380072
0.485533128,0.187808035
0.528599251,0.180011981
0.559339493,0.175007346
0.605449856,0.168228266
0.639986203,0.1636386
0.678318655,0.15896109
0.716651107,0.154664449
0.754983559,0.150699682
0.798049676,0.146591023
0.869749348,0.140441036
0.91754913,0.136748411
0.965348911,0.133333937
1.05475693,0.127582945
1.14416495,0.122521011
1.24093363,0.117672211
1.3524236,0.11274557
1.46391357,0.108394186
1.59376069,0.10391494
1.6864445,0.101040037
1.82547021,0.0971465448
1.92959951,0.094511053
2.04517431,0.0918256112
2.16074912,0.0893593127
2.27632392,0.087083958
2.40617103,0.0847265183
2.62235015,0.0811988645
2.76646956,0.0790814325
2.91058897,0.0771239964
3.1801599,0.0738282953
3.44973083,0.0709288881
3.74149459,0.0681529962
4.07764401,0.0653341997
4.41379343,0.0628461425
4.80529086,0.0602867943
5.08473848,0.0586452416
5.50390992,0.0564236531
5.81786646,0.0549210198
6.16633192,0.0533909825
6.51479738,0.0519868624
6.86326284,0.0506924471
7.25476021,0.0493524499
7.90655413,0.0473496821
8.7756127,0.0450404152
9.58838636,0.0431766219
10.40116,0.0415403987
11.2465046,0.0400349206
12.073927,0.038721316
13.121781,0.0372448351
14.0669843,0.0360618166
15.3308131,0.03466074
16.5946419,0.0334297003
17.5412411,0.0326003503
18.5918868,0.0317590207
19.6425325,0.0309900914
20.6931783,0.0302842703
21.873568,0.0295570563
23.1837017,0.028820921
24.4938354,0.0281497487
26.991402,0.0270214366
29.6898438,0.025984012
32.9938754,0.0249148036
36.0496795,0.0240813749
39.1054835,0.0233673719
42.25,0.0227347807
44.5135216,0.0223336155
49.0405647,0.021645084
52.8780647,0.0211612108
56.0260216,0.020821662
60.7875719,0.0203918455
64.5483219,0.0201141268
68.7850482,0.0198579011
72.4485964,0.0196794244
76.1121446,0.0195369839
81.9067696,0.0193781019
88.3,0.0192877786
92.98175,0.0192731326
98.5710768,0.0193086886
104.35899,0.0194032946
109.239327,0.0195271309
114.119663,0.0196904822
120.26196,0.0199518795
126.675,0.0202916862
133.122,0.0207038579
139.569,0.021189681
146.016,0.0217532712
152.463,0.022400027
159.867558,0.0232543352
165.05,0.0239296749
171.19,0.0248205452
175.488,0.0255079696
181.4745,0.0265618965
186.54,0.0275501728
192.889168,0.028928927
198.9735,0.0304152154
204.96,0.0320579028
211.1,0.0339563485
215.705,0.0355425275
218.775,0.0366866846
221.845,0.0379069304
224.915,0.0392097503
227.985,0.0406023654
231.055,0.0420928341
234.125,0.0436901705
237.195,0.0454044829
240.528838,0.047411888
243.784709,0.0495342427
246.405,0.0513703958
249.475,0.0536819245
252.545,0.0561842311
255.615,0.0588986686
257.15,0.060342947
260.22,0.0634225882
263.29,0.0667826465
266.36,0.0704581265
267.895,0.0724266163
270.58125,0.07610285
274.035,0.0813110934
276.3375,0.0851227408
278.64,0.0892399629
280.9425,0.0936964363
283.245,0.0985306395
285.5475,0.103786701
287.85,0.109515427
290.1525,0.115775551
291.6875,0.120277425
293.2225,0.125068477
295.525,0.132853722
297.06,0.138485484
298.497265,0.144113094
300.8975,0.154361877
302.4325,0.161538707
303.9675,0.169259916
305.5025,0.177582334
307.0375,0.186570431
308.5725,0.196297587
310.1075,0.206847616
311.6425,0.218316594
313.1775,0.230815088
314.7125,0.244470855
316.2475,0.259432165
317.015,0.267455327
318.55,0.284708113
319.3175,0.293992539
320.8525,0.314032666
321.62,0.324858836
323.155,0.348324295
324.30625,0.367692836
325.4575,0.388778218
326.60875,0.411790508
327.76,0.436972979
328.91125,0.464608622
329.67875,0.484556339
330.44625,0.505851961
331.5975,0.540599563
332.365,0.565843607
333.1325,0.592941675
334.28375,0.6374802
335.05125,0.670084468
335.81875,0.70531091
336.394375,0.733624444
336.97,0.763712381
337.545625,0.795726626
338.217188,0.835737089
338.88875,0.87890008
339.512344,0.92210025
340.183906,0.972347787
340.855469,1.02688797
341.527031,1.08622542
342.198594,1.15094119
342.894141,1.22435581
343.589687,1.30513056
344.309219,1.39752328
345.02875,1.50022159
345.4125,1.55974649
345.79625,1.62292831
346.18,1.6900734
346.56375,1.76152088
346.851562,1.81815469
347.235313,1.89806162
347.619063,1.98341005
348.002813,2.07470622
348.386562,2.17251666
348.770313,2.27747697
349.154063,2.39030222
349.537812,2.51179915
349.921563,2.64288066
350.305313,2.78458297
350.689062,2.93808617
351.16875,3.1486331
351.5525,3.33392448
352.032188,3.58963778
352.224063,3.70027719
352.511875,3.87613779
352.70375,4.00047657
352.991562,4.19857315
353.183438,4.33896965
353.47125,4.56321444
353.663125,4.72255658
353.93175,4.96010775
354.162,5.17834858
354.39225,5.41137695
354.6225,5.66055863
354.85275,5.9274205
355.083,6.21367393
355.31325,6.52124205
355.5435,6.85229194
355.8505,7.33449814
356.08075,7.7304359
356.38775,8.3103403
356.54125,8.62511288
356.69475,8.95813715
356.84825,9.31084852
357.00175,9.68482589
357.232,10.2895206
357.3855,10.7246771
357.539,11.1880323
357.6925,11.682068
357.846,12.2095438
357.9995,12.7735356
358.153,13.3774794
358.3065,14.025223
358.46,14.7210864
358.6135,15.4699327
358.84375,16.7047492
358.99725,17.6116885
359.15075,18.5942606
359.30425,19.6610581
359.419375,20.5222946
359.5345,21.4410927
359.688,22.7647788
359.803125,23.8391746
359.91825,24.990951
359.995,25.8054788
360.110125,27.1034386
360.22525,28.5010318
360.340375,30.0086095
360.417125,31.0804862
360.53225,32.7981734
360.647375,34.6607224
360.7625,36.684664
360.877625,38.888918
360.99275,41.2952123
361.107875,43.9285883
361.223,46.8180129
361.338125,49.9971236
361.414875,52.2965727
361.491625,54.7552852
361.60675,58.7746161
361.6835,61.6996266
361.76025,64.8433248
361.875375,70.0171832
361.952125,73.8086639
362.028875,77.9075001
362.105625,82.3466519
362.182375,87.163428
362.259125,92.4001539
362.335875,98.1049546
362.412625,104.33267
362.489375,111.145925
362.566125,118.616387
362.6045,122.623293
362.68125,131.23737
362.758,140.737564
362.796375,145.855691
362.853938,154.037987
362.892313,159.855336
362.949875,169.173323
362.98825,175.810686
363.045813,186.462317
363.084187,194.063736
363.14175,206.284758
363.199313,219.578502
363.256875,234.055818
363.314437,249.83845
363.372,267.059293
363.429563,285.862195
363.487125,306.401083
363.544688,328.838044
363.60225,353.339935
363.659813,380.072883
363.698188,399.212584
363.736563,419.455996
363.774938,440.838792
363.8325,475.104812
363.8632,494.467403
363.9246,535.438303
363.9553,557.0096
364.0167,602.140456
364.0781,649.499373
364.24695,783.643353
364.293,818.399221
364.33905,850.856143
364.3851,880.080313
364.4158,897.298775
364.4465,912.389002
364.4772,925.10055
364.5079,935.212278
364.5386,942.541456
364.5693,946.951749
364.598465,948.360994
364.6307,946.7372
364.6614,942.115684
364.6921,934.58179
364.7228,924.274759
364.7535,911.379834
364.7842,896.120206
364.8149,878.747848
364.8456,859.533901
364.89165,827.874873
364.95305,781.825839
365.1219,647.495948
365.214,577.280986
365.2754,533.503152
365.3061,512.675772
365.35215,482.831328
365.386687,461.565717
365.425063,439.060972
365.482625,407.484529
365.540188,378.432519
365.59775,351.767698
365.655313,327.332021
365.693688,312.197712
365.75125,291.106182
365.789625,278.047344
365.828,265.735199
365.866375,254.124563
365.90475,243.172278
365.943125,232.837339
365.9815,223.08095
366.019875,213.866533
366.05825,205.159698
366.096625,196.928183
366.135,189.141778
366.173375,181.77224
366.21175,174.793186
366.250125,168.180003
366.326875,155.960989
366.403625,144.949686
366.480375,135.002432
366.51875,130.388193
366.5955,121.808464
366.633875,117.817774
366.710625,110.377981
366.749,106.90842
366.82575,100.4238
366.864125,97.3920658
366.940875,91.7120359
366.97925,89.0500876
367.056,84.051373
367.094375,81.7033741
367.171125,77.2845655
367.2095,75.2044679
367.28625,71.2817247
367.324625,69.4313605
367.401375,65.9350165
367.5165,61.1544656
367.59325,58.2441922
367.708375,54.2455368
367.785125,51.799737
367.90025,48.4242903
367.977,46.350768
368.05375,44.4053491
368.1305,42.5778668
368.20725,40.8591266
368.284,39.2407983
368.36075,37.7153227
368.4375,36.275828
368.51425,34.9160581
368.591,33.6303078
368.7445,31.26047
368.898,29.1297106
369.0515,27.2072423
369.205,25.4670309
369.28175,24.6582239
369.43525,23.1509425
369.58875,21.7764836
369.74225,20.5198076
369.819,19.9315094
369.9725,18.8277121
370.04925,18.309593
370.20275,17.3350044
370.2795,16.8763994
370.433,16.0117327
370.50975,15.6039169
370.74,14.4691171
370.97025,13.4529327
371.2005,12.5394715
371.43075,11.7154045
371.58425,11.2100638
371.8145,10.5108572
371.968,10.0802243
372.19825,9.48196629
372.35175,9.11206389
372.582,8.59628615
372.7355,8.27624894
372.889,7.97365592
373.0425,7.68726647
373.3495,7.15866494
373.503,6.91446883
373.81,6.46192899
374.117,6.05218037
374.424,5.68000858
374.692625,5.38167208
375.038,5.03125105
375.345,4.74757942
375.72875,4.42533707
376.1125,4.13466476
376.304375,3.9998975
376.688125,3.74930631
376.88,3.63270556
377.26375,3.4151682
377.455625,3.3136173
377.839375,3.12357932
378.03125,3.03460139
378.415,2.8676262
378.79875,2.71399394
378.990625,2.64174262
379.374375,2.50559013
379.95,2.32018546
380.33375,2.20772739
380.909375,2.05369769
381.293125,1.95975071
381.676875,1.87207237
382.060625,1.79011848
382.444375,1.71340258
382.828125,1.64148873
383.211875,1.57398537
383.595625,1.51053999
383.979375,1.45083458
384.363125,1.39458162
384.746875,1.34152068
385.130625,1.29141539
385.514375,1.24405086
385.898125,1.19923131
386.47375,1.13638742
387.24125,1.05996073
388.00875,0.990954997
388.77625,0.928442364
389.54375,0.87163541
390.31125,0.81986242
390.695,0.795680432
391.4625,0.750404253
391.84625,0.729195012
392.61375,0.689375837
392.9975,0.670672922
393.765,0.635470694
394.14875,0.618895584
395.3,0.572868634
396.45125,0.531774208
397.6025,0.49493467
398.75375,0.46178474
399.52125,0.44149703
400.6725,0.413478945
401.44,0.396254256
402.59125,0.372365784
403.35875,0.357620169
404.51,0.337092034
405.2775,0.324374189
406.42875,0.306608049
407.19625,0.295564773
408.3475,0.280089634
409.115,0.27044133
410.65,0.252590174
412.185,0.236461448
413.72,0.221842544
415.255,0.208552672
416.79,0.196437322
418.325,0.185363824
419.86,0.17521775
421.395,0.165899999
422.93,0.157324406
424.465,0.149415777
425.2325,0.145690671
426.89525,0.138100583
428.08175,0.133056039
429.19706,0.128573547
430.64459,0.123102718
432.49553,0.116629554
433.421,0.113595164
434.738015,0.109491715
436.05503,0.105624163
438.167,0.0998736528
439.3535,0.0968677207
441.121385,0.0926635371
443.494385,0.0874934247
445.286,0.0839167599
447.558147,0.0797476941
450.032,0.0756343006
452.21516,0.0723417952
455.20514,0.0683051036
457.151,0.0659543542
458.76464,0.0641643212
460.9478,0.0619704832
462.8462,0.0602797191
464.7446,0.0588019993
466.643,0.057558842
468.5414,0.0565879797
469.4906,0.0562232657
470.9144,0.0558591717
472.3382,0.0557663459
473.2874,0.0558964688
474.35525,0.0562793205
475.06715,0.0567087287
476.135,0.0576920651
476.8469,0.0586381892
477.5588,0.0598888637
478.2707,0.0615323291
478.7453,0.0629056454
478.9826,0.0636930417
479.4572,0.0655066446
479.6945,0.0665510482
480.05045,0.0683206063
480.4064,0.0703746303
480.6437,0.0719294248
480.99965,0.0745906917
481.23695,0.0766205938
481.47425,0.078890209
481.71155,0.0814361654
481.94885,0.0843024083
482.0675,0.0858718097
482.3048,0.0893215128
482.42345,0.0912196321
482.66075,0.0954144999
482.7794,0.0977356901
483.0167,0.102897795
483.194675,0.107292618
483.37265,0.112213937
483.550625,0.11774745
483.7286,0.123997053
483.906575,0.13108968
484.08455,0.139181708
484.232863,0.146827361
484.381175,0.155439401
484.4405,0.159191322
484.55915,0.167289044
484.6778,0.176274186
484.737125,0.181140326
484.855775,0.191714955
484.9151,0.197467082
485.03375,0.210026628
485.122737,0.220485425
485.211725,0.231962978
485.27105,0.240246955
485.360037,0.253736315
485.449025,0.268662057
485.538013,0.285234789
485.627,0.303705147
485.715987,0.324373285
485.804975,0.34760107
485.834637,0.355985827
485.893963,0.373827951
485.923625,0.383326351
485.98295,0.403591778
486.012613,0.414409505
486.071937,0.437556439
486.1016,0.449948876
486.160925,0.476548985
486.190587,0.49083632
486.249913,0.521610139
486.279575,0.538198107
486.3389,0.574064001
486.38636,0.605632018
486.439753,0.644622271
486.469415,0.668055387
486.50501,0.698022864
486.55247,0.741441598
486.59993,0.789311022
486.64739,0.842258878
486.69485,0.901027273
486.71858,0.932863585
486.754175,0.984033028
486.777905,1.0206281
486.801635,1.05939137
486.825365,1.10049692
486.86096,1.16697199
486.88469,1.21481678
486.920285,1.29249328
486.944015,1.3486272
486.97961,1.44015646
487.00334,1.50659939
487.038935,1.61546136
487.07453,1.73685698
487.110125,1.87277394
487.12199,1.92170696
487.14572,2.02560738
487.157585,2.08079626
487.181315,2.19826347
487.199112,2.29310544
487.21691,2.39429493
487.228775,2.46556202
487.252505,2.61807995
487.26437,2.69974678
487.2881,2.87506095
487.299965,2.96923087
487.323695,3.17206699
487.347425,3.39648971
487.371155,3.6456341
487.388952,3.85092667
487.400818,3.99755813
487.412682,4.15270235
487.43048,4.4028453
487.442345,4.58231007
487.45421,4.77290298
487.466075,4.97554696
487.47794,5.1912607
487.489805,5.4211706
487.50167,5.66652436
487.513535,5.92870664
487.5254,6.20925698
487.537265,6.50989046
487.555062,7.00274561
487.566928,7.36246762
487.578792,7.75003726
487.590658,8.16831422
487.59659,8.38995942
487.608455,8.86046785
487.62032,9.37054174
487.626252,9.64176449
487.638118,10.2195953
487.649982,10.8491053
487.655915,11.1851006
487.66778,11.9037494
487.679645,12.6908746
487.685578,13.1127174
487.697442,14.0188296
487.703375,14.5057019
487.71524,15.5543083
487.721172,16.119255
487.733038,17.3393686
487.741936,18.3412895
487.750835,19.426002
487.759734,20.6019418
487.765666,21.4411681
487.771599,22.3281048
487.780498,23.7551035
487.78643,24.7759572
487.792362,25.856835
487.801261,27.599621
487.807194,28.8488091
487.813126,30.173261
487.822025,32.3118131
487.827958,33.8462736
487.83389,35.4739732
487.839822,37.200384
487.845755,39.0310164
487.851688,40.9713219
487.85762,43.0265653
487.863552,45.2016601
487.872451,48.6983316
487.88135,52.4851725
487.890842,56.8487802
487.900334,61.5392932
487.909826,66.5300661
487.919318,71.7688868
487.945421,86.6204661
487.954913,91.7059751
487.962032,95.1994166
487.966778,97.3179237
487.971524,99.2318094
487.97627,100.911125
487.981016,102.328072
487.985762,103.458063
487.990508,104.280736
487.995254,104.780839
488.0,104.948926
488.004746,104.781794
488.009492,104.282637
488.014238,103.460894
488.018984,102.331809
488.02373,100.915735
488.028476,99.2372541
488.033222,97.32416
488.037968,95.2063968
488.045087,91.7139754
488.054579,86.6296391
488.080682,71.7802113
488.090174,66.5418307
488.099666,61.551351
488.104412,59.1664792
488.113904,54.6375296
488.11865,52.4974686
488.127549,48.7106172
488.133481,46.3477868
488.139414,44.1110275
488.145346,41.9963629
488.154245,39.0429716
488.163144,36.3362745
488.172042,33.8578572
488.180941,31.5892397
488.18984,29.5124806
488.198739,27.610549
488.207638,25.8675339
488.216536,24.2687399
488.225435,22.8007069
488.234334,21.4511813
488.240266,20.6118056
488.249165,19.435645
488.255098,18.7027612
488.266962,17.348584
488.278828,16.1281969
488.28476,15.5631171
488.296625,14.5142519
488.30849,13.5632517
488.314422,13.1208981
488.326288,12.2961968
488.338152,11.5440737
488.350018,10.8566127
488.361882,10.2268965
488.373748,9.6488681
488.385612,9.11721205
488.397478,8.62725368
488.409342,8.1748725
488.421208,7.75642835
488.439005,7.18544425
488.45087,6.83852311
488.462735,6.51574678
488.480532,6.07223173
488.492398,5.80093638
488.504262,5.5472236
488.52206,5.19646841
488.539858,4.87769257
488.557655,4.58718177
488.575452,4.32173751
488.59325,4.07859482
488.611048,3.85535462
488.628845,3.64992795
488.652575,3.40061419
488.66444,3.28543995
488.68817,3.07201556
488.700035,2.97304545
488.723765,2.78899577
488.747495,2.62161768
488.75936,2.54356332
488.78309,2.39764351
488.800888,2.29636472
488.818685,2.20143668
488.842415,2.08385942
488.866145,1.97557388
488.889875,1.8756317
488.92547,1.73957215
488.9492,1.65706822
488.97293,1.58040794
488.99666,1.50905466
489.02039,1.44253167
489.04412,1.38041438
