energy [eV],cross section [b]
1e-05,82200.0
1.0635375511787212e-05,79705.18380071403
1.1283657548499676e-05,77380.14626308066
1.1944598423323666e-05,75207.39625936074
1.261795521383068e-05,73171.83948352086
1.3303538907485856e-05,71260.24033066383
1.4001100991263341e-05,69461.22693965981
1.5431366435486075e-05,66161.8135234627
1.6907672202979612e-05,63205.45737213922
1.8428244025267736e-05,60539.96403129224
1.9991860870852183e-05,58122.70849208456
2.1597335466943832e-05,55919.24353672796
2.324565708068095e-05,53898.901247363276
2.4933878440175282e-05,52041.02602404468
2.6661096898471697e-05,50325.970148052205
2.842643027650234e-05,48737.22564251664
3.022922284441215e-05,47260.64617781659
3.206857065821478e-05,45884.38048916847
3.394377337243006e-05,44598.11090684418
3.5854144090435614e-05,43392.9313650801
3.780667925325445e-05,42256.818580437786
3.979340376593893e-05,41187.759954896355
4.3867150150836384e-05,39227.44542069121
4.8071206365291474e-05,37471.76071083332
5.240152555376743e-05,35889.075711832986
5.685542446886308e-05,34453.75689675208
6.142874879941857e-05,33145.578732209244
6.611852713969418e-05,31947.67833857439
7.092186218637887e-05,30846.135659459258
7.542806363473612e-05,29909.93810558345
8.002580056129876e-05,29037.451204133642
8.471331632505992e-05,28222.11128480475
8.948888807492e-05,27458.254101713646
9.435117529878409e-05,26740.912899821495
9.92984154959951e-05,26065.820307216953
0.00010944212436850555,24827.69191509218
0.00011991235978721883,23718.2982058294
0.0001306965383096998,22718.05283854045
0.00014178600015318386,21810.960474964057
0.00015317232495795825,20984.09455119527
0.00016486252879078765,20225.94671255432
0.00017683570905060347,19528.765797994303
0.0001890854639971103,18885.17886107926
0.00020160553705208061,18288.99116587281
0.00021439127765727334,17734.894201394596
0.00022743627487360613,17218.44069609655
0.00024073556172051608,16735.758870901765
0.00025428426659924444,16283.506661178408
0.0002681320095723941,15857.172244152582
0.00028222222978148507,15456.00037807757
0.00031111399775068076,14720.378382246648
0.000340929947297218,14061.545185950848
0.00037164137736803046,13467.631363744576
0.0004032292578728781,12929.017752010266
0.00043566412566340513,12438.114575243471
0.0004689249069767741,11988.593917718166
0.0005029910535983717,11575.232179096884
0.000534949873408817,11223.917376774412
0.0005675578798763071,10896.510450701153
0.0006008026145757017,10590.548336830208
0.0006346718587261761,10303.905486537256
0.0006691561051663243,10034.71808960678
0.0007042428539132754,9781.384784324837
0.000776183926184769,9316.768283749303
0.0008504407855272615,8900.460390128008
0.0009269241878237315,8525.111189493697
0.0010055727162821997,8184.7183172000605
0.0010863266521435558,7874.430988042444
0.0011692357546598158,7589.930609932415
0.0012541517786917487,7328.308504461562
0.0013410293219050557,7086.797920948942
0.001429824011481856,6863.074240598107
0.001520502864797083,6655.145406841543
0.0016130204142769278,6461.342549344867
0.0017073414331702946,6280.212755423777
0.0018034313711916038,6110.501891513596
0.0019016421430650154,5950.516863972537
0.002001572608649503,5799.974262954189
0.0022064784072727173,5523.926867850992
0.002417938673742271,5276.695016879029
0.0026357498548451484,5053.824623572426
0.002859776985637609,4851.706028248975
0.003089811107984926,4667.491113574911
0.0033257027628367307,4498.80528408884
0.003567306218428522,4343.688346546966
0.003793964119852094,4211.854963923912
0.0040252261739380825,4088.993182202473
0.0042610040232154015,3974.178719050185
0.0045012110098150765,3866.61394720164
0.004745779707178006,3765.599458594169
0.004994621463097944,3670.534330835215
0.005504840944415863,3496.183678689519
0.0060314844188840205,3339.9611754930934
0.006573918950605582,3199.1087136629767
0.0071317089602548804,3071.373863099929
0.0077044309112715564,2954.9363320949765
0.008292437705537012,2848.1755381977814
0.008894677960917812,2749.9999791118044
0.009510829675604345,2659.3714119314463
0.01014057814930916,2575.4175068908703
0.010783689463113299,2497.39073057009
0.011439841152516401,2424.664827485743
0.012108783382839822,2356.6945818013164
0.01279027111702432,2293.009370961201
0.013486800199826718,2232.9738495133442
0.01419552567066709,2176.4816658936384
0.015648755751781637,2072.8929140956634
0.0171484713394265,1980.117400538238
0.01869322879630957,1896.4836975405192
0.02028207092591685,1820.6372545886143
0.021913515758244947,1751.5092953607327
0.023586503301876605,1688.208735991442
0.0253,1630.0
0.026919885318300824,1580.3384317702644
0.028573038962777818,1534.0721511702493
0.030258822558112523,1490.8497112242035
0.03197660985248325,1450.368052976418
0.03372591485748639,1412.3615869809983
0.035506096255879416,1376.6023135174382
0.03915704336711878,1311.0409760466935
0.04292668354720673,1252.3192753098049
0.04681043693910903,1199.3932232213303
0.05080516098819977,1151.410730110428
0.054907798798116456,1107.6837172737867
0.05912095201855194,1067.599462740615
0.06343698499981097,1030.746540705113
0.0678535756124254,996.733156001647
0.07236845360252568,965.2302916218864
0.07697993569470198,935.9560959487754
0.08168569301004427,908.6745889349187
0.08648392432907154,883.180375072501
0.09137286249209882,859.2962236621315
0.09722320077044157,833.1158567658424
0.10319369012360788,808.7254026538881
0.10928202501087879,785.939587056894
0.11548594367646023,764.5986446888554
0.12180369093649547,744.5625632749858
0.12823295062528436,725.7111469264346
0.14141862210201164,691.1488096829686
0.15503296256920004,660.1921620202531
0.16905943152696729,632.2908388957308
0.18348667940172808,606.9956394281892
0.19830366598119067,583.9438253161945
0.21351978731988613,562.8123844887921
0.22910746669174165,543.3844233010485
0.24505831755064728,525.4533969024868
0.26136414070313885,508.8458555552055
0.27801885687283057,493.41321396462234
0.295014055137493,479.0310692082916
0.3123432302568116,465.59114178669023
0.33,453.0
0.36442530801285683,430.986159287464
0.399966337221095,411.31422550173613
0.4365897090441535,393.6147565909918
0.4742630574803189,377.5942878824614
0.5129644933400904,363.01299603552945
0.5526608372859096,349.6799167230417
0.5933280457918774,337.4348440179828
0.6349426645729275,326.1446644196749
0.6775189275300999,315.6890592691455
0.7210027582773848,305.9827044366119
0.7653757475071497,296.9444952211338
0.8106198646129633,288.50497973386047
0.8567212457280305,280.60366832271825
0.9036614530932235,273.1889645225085
1.0,259.643
1.055615231046006,252.65533667784567
1.1122167309850326,246.09036037692164
1.2283107878780657,234.07785464824727
1.348157764423462,223.34701052991215
1.4716373559042744,213.6956895353947
1.5986701446313725,204.96085154898293
1.7291329875602228,197.01441092030046
1.8629380984477133,189.74996982916127
2.0,183.08
2.1175832773329013,177.87104767434022
2.2373609943702557,172.99434248934716
2.3592931392887664,168.41775118368435
2.4833404559520242,164.113281363703
2.7376471421677935,156.2250259413388
3.0,149.166
3.2313121858329374,143.65769130505828
3.4682059622655848,138.60019613342575
3.710550750706009,133.93811955546556
3.9582191624309617,129.62504853912836
4.211116429721324,125.62131812888722
4.469112499611303,121.89376898433181
4.732106590203007,118.41359992443311
5.0,115.156
5.479157622649101,109.92464490237064
5.972476918001068,105.21402729487417
6.479554732305372,100.94706685652191
7.0,97.0616
7.716944141441991,92.35764800729464
8.456376278725415,88.15098405765264
9.217614791491316,84.3637018687186
10.0,80.9338
10.557196160454039,78.71736369448047
11.124127929019682,76.63670372870808
12.286507535617357,72.83380913759298
13.485871136016039,69.44132906720418
14.720996319008112,66.39389790631989
15.99107115524435,63.638930416681255
17.294852061792803,61.13516952265852
18.63144969249872,58.84842115613478
20.0,56.7506
21.177318482592252,55.10169698225774
22.37617213560693,53.55954976954543
23.59615218350153,52.1136986182688
24.836858374048504,50.755047080119624
27.379086766527593,48.26831688552424
30.0,46.0464
32.317622517556124,44.302051853793685
34.68983431042188,42.70307545137662
37.115294884606456,41.23132647993961
39.592700516398985,39.87164285893346
42.121075527775716,38.61110479623617
44.69909839221401,37.43892814828986
47.325741244423014,36.34577070745399
50.0,35.3236
54.797672899940785,33.67179503247032
59.732968435573476,32.187758002915544
64.80174434902783,30.846226669615337
70.0,29.6269
77.18046712478129,28.14319411890755
84.57859609693752,26.819959379674987
92.18736167725679,25.631564931853035
100.0,24.5577
105.59782956474908,23.8563311956053
111.28983624750393,23.19926306431224
117.07420754762207,22.58226693728656
122.94917221960644,22.0016506349252
134.9647986898199,20.936915379252287
147.32406336557108,19.98338636955719
160.01845203476108,19.123740978334105
173.0352768760843,18.344433192000565
186.36540271533374,17.634297822380347
200.0,16.9842
211.80679258231189,16.467520844932725
223.8196337795073,15.985414091596137
236.0342638925353,15.534393798552959
248.4465299026324,15.111439962555345
273.84980446151826,14.339480553398513
300.0,13.6521
323.26781932222354,13.10837166337579
347.0563869822588,12.611610560375476
371.35168640078433,12.155770117623305
396.1401657491309,11.735824816015365
421.41158173386657,11.347517521804427
447.152381020265,10.9873061591071
473.3519573560868,10.65213839556918
500.0,10.3394
548.0841150998357,9.831623701604727
597.4738838181137,9.377226811943261
648.1262685353674,8.967932233059917
700.0,8.59713
735.7202428264729,8.364685022803664
771.9677362483732,8.14604388296675
846.0049742671074,7.745367582507694
922.038922415516,7.386822511474514
1000.0,7.06389
1056.2060329945236,6.854829607130383
1113.325499265174,6.659324658869214
1171.3396754620712,6.476051069850263
1230.2303193935509,6.303856212375015
1350.578310065026,5.988770774999803
1474.239786872543,5.707347411876307
1601.1266556740425,5.454243588654528
1731.1103898486783,5.22529389183616
1864.0980027180776,5.017081391751765
2000.0,4.82682
2118.0710244763914,4.679921697706267
2238.201674378208,4.542855695094886
2360.3493384091194,4.414630341451273
2484.4724740206925,4.294386562525514
2738.5034642158807,4.074927813464002
3000.0,3.87952
3231.6563057582403,3.7334268075812513
3468.800466809229,3.5994573940610914
3711.2992232977713,3.4761040713798113
3959.0228782197923,3.3621061708644033
4211.874498529623,3.2563887234474778
4469.722399665501,3.158054125886886
4732.464243324982,3.0663243132980993
5000.0,2.98053
5478.026247524729,2.852506876312106
5970.952944340179,2.7367450637549653
6478.401134858538,2.631488085897008
7000.0,2.53531
7712.270648619339,2.4298138308875594
8450.066687357388,2.334373531097396
9212.828545102253,2.247545558007851
10000.0,2.16816
11088.604886820012,2.0881646432187235
12224.551595353885,2.015372206247503
13407.18378018616,1.94878923263678
14635.815069566994,1.8876057396220518
15910.12200566757,1.831137008194641
17229.267533037724,1.7788343620174423
18592.737854887797,1.730222658065233
20000.0,1.6849
22320.010577724417,1.632334144460118
24760.401983425683,1.5841458960294854
27320.632452447942,1.539764279693499
30000.0,1.49872
32846.40424270326,1.4622656800395206
35817.91985186001,1.4282642707929873
38914.30699790126,1.3964535132728628
42135.2,1.36661
45997.198541634236,1.322747171990853
50000.0,1.28232
54721.33487689644,1.243781234218804
59629.64196254956,1.2081692210838881
64723.15901779165,1.1751387922678491
70000.0,1.1444
76295.24537445817,1.109429514410612
82820.21071448368,1.0771000950571192
89572.27296279828,1.0471034744693026
96548.7,1.01918
100000.0,1.00756
104909.15734463498,0.9788149522405912
109879.74452575474,0.9518282043563003
120000.0,0.902504
129870.10845181101,0.8679308606232027
140000.0,0.836307
151137.77696644614,0.8146094097637194
162647.0,0.794336
170000.0,0.784708
186525.0,0.771281
200000.0,0.748285
206205.0,0.731367
214277.56819673433,0.7057939290842848
222365.0,0.68197
230139.35978638596,0.6606488392748541
237927.0,0.640637
241933.0,0.630258
248664.0,0.609449
250000.0,0.605626
261664.40712816847,0.5816079452239962
273368.0,0.559458
276628.0,0.55248
279013.0,0.546297
289494.7172878553,0.5283244131464396
300000.0,0.511515
303061.0,0.504598
310793.4957527219,0.4862353665551777
318466.0,0.469098
326332.0,0.451449
335458.0,0.433279
353046.0,0.405341
366171.3755819369,0.38754496517210424
379225.0,0.371203
387374.0,0.361743
389520.0,0.359368
400000.0,0.347327
424761.5672433712,0.33041119767625055
449686.6758359717,0.3151146463066721
474768.330649185,0.30121333335691763
500000.0,0.288523
524949.8763085274,0.2753914637193217
549934.1264823105,0.26341109292295023
574951.2891850645,0.2524365473770337
600000.0,0.242346
649568.3841076846,0.22990679841300346
700000.0,0.218774
749754.7265474154,0.2073723354953345
800000.0,0.197148
849693.5168195146,0.18914514489290724
900000.0,0.18181
949689.6709116758,0.1756021896748591
1000000.0,0.169839
1049787.9648051152,0.1638967999594085
1100000.0,0.158379
1149848.6592341952,0.1529212494565886
1200000.0,0.147842
1249903.6410273123,0.1427773442380241
1300000.0,0.138057
1349971.43799893,0.1331787568034699
1400000.0,0.128636
1450025.4570525023,0.12400514240406786
1500000.0,0.119694
1550094.0199965767,0.11516250889142489
1600000.0,0.110954
1650155.860208536,0.1065618468385709
1700000.0,0.102492
1750216.558175445,0.09824219712415076
1800000.0,0.0943145
1850278.9550525455,0.0901996298509887
1900000.0,0.0864086
1950331.9465680148,0.0824864019205281
2000000.0,0.078882
2039294.372622406,0.07568818149574592
2078029.2393255993,0.07272256365600364
2116230.225600992,0.06996222380773366
2153921.186534941,0.06738715522308686
2227858.2942195283,0.06272493669172531
2300000.0,0.0586192
2351670.3758709044,0.05536658031213451
2402179.215786125,0.05242444268274869
2451600.1779980995,0.049751763433526934
2500000.0,0.0473143
2551894.363686133,0.04455393609803783
2602467.9150534235,0.04206782423042293
2651809.717065888,0.03981842287337726
2700000.0,0.0377746
2740225.246300942,0.03600490968986373
2779585.7400988424,0.03437680940337204
2818129.23867526,0.03287459676885138
2855899.6119309426,0.03148475499329366
2892935.9293155875,0.0301956364138453
2929275.9819648727,0.0289970565193481
3000000.0,0.0268372
3036378.646267511,0.025562593093869473
3071895.601220906,0.024390237149972637
3106599.9087018436,0.02330880932615491
3140536.5321713677,0.022308557028243182
3173745.5766579686,0.021381072723950845
3206265.583620788,0.02051900079957635
3269373.9807108142,0.018966303590980785
3330098.576516099,0.017608288755084602
3388660.2452470604,0.016411693345719073
3445240.7989545683,0.015350453266995672
3500000.0,0.0144037
3536593.818714337,0.013723666877053583
3572288.8036320866,0.013097563895867297
3607136.284819207,0.012519498213395127
3641183.3254380054,0.011984382735130613
3674471.994264476,0.011487822713711716
3707042.602581054,0.01102596593722229
3770171.649331724,0.010193350348737926
3830819.4100813577,0.009464356479597705
3889216.7869014847,0.00882144139654889
3945554.4869304844,0.008250822622247606
4000000.0,0.00774144
4036210.176014909,0.007408792522246395
4071600.336214605,0.0071001857357459435
4140088.914404343,0.006545797637626014
4205769.180150471,0.0060624418976505424
4268902.374165469,0.005637822080901169
4329705.2369421525,0.005262317068164916
4388379.586026354,0.004928179108132218
4445094.569378806,0.00462921272074189
4500000.0,0.00436037
4570031.688767475,0.00405930646162007
4637556.402877431,0.003792628095986277
4702779.630207672,0.0035550009182943373
4765882.627754579,0.0033421131295383742
4827019.979689334,0.003150463966417743
4886337.318798942,0.002977144876529326
4943959.768723358,0.0028197564692963124
5000000.0,0.00267629
5067854.419725029,0.002538928968395165
5133991.293199172,0.0024134599631446493
5198515.6720607765,0.002298464809902534
5261523.225359075,0.002192736686195105
5323098.524441869,0.002095247141662263
5383322.680099538,0.002005105417704526
5442267.708715739,0.0019215450728698776
5500000.0,0.0018439
5630061.990300047,0.0017263923777874632
5756581.470642238,0.001621614263450622
5879817.1537211295,0.0015276713823655602
6000000.0,0.00144302
6251793.819247935,0.001354605702781624
6500000.0,0.00127587
7000000.0,0.0012489
7500000.0,0.00130854
8000000.0,0.00141469
8500000.0,0.00153341
9000000.0,0.00163948
9500000.0,0.00172021
10000000.0,0.00176751
10500000.0,0.00177097
11000000.0,0.00175104
11500000.0,0.00170257
12000000.0,0.00161677
12500000.0,0.00153309
13000000.0,0.00144739
13252043.365900986,0.001384866443388521
13500000.0,0.00132707
13752164.69389556,0.00126874161736742
14000000.0,0.00121488
14253105.617922531,0.0011487360086659204
14500000.0,0.00108872
14752587.407196848,0.00103675338243663
15000000.0,0.000989053
15252687.532844726,0.0009412184316859119
15500000.0,0.00089735
15753036.692661662,0.0008507117512624329
16000000.0,0.000808194
16252076.515157018,0.0007757654451796616
16500000.0,0.000745599
17000000.0,0.000691802
17500000.0,0.000645335
18000000.0,0.000604538
18500000.0,0.000568607
19000000.0,0.000550625
19500000.0,0.000521176
20000000.0,0.000494139
