energy [eV],cross section [b]
1e-05,2.28835722
1.05990297e-05,2.22275075
1.14975743e-05,2.1341292
1.23961189e-05,2.05532712
1.31386833e-05,1.99640155
1.38812476e-05,1.94226985
1.4623812e-05,1.89231539
1.53663764e-05,1.84602716
1.6286868e-05,1.79310215
1.72073596e-05,1.74448284
1.81278512e-05,1.69961539
1.9618869e-05,1.63375464
2.13304475e-05,1.56683705
2.30420261e-05,1.5075214
2.50270143e-05,1.44650285
2.71487074e-05,1.38883047
2.92704005e-05,1.33754833
3.10237845e-05,1.29920124
3.27771685e-05,1.26397387
3.54072445e-05,1.21612369
3.73706943e-05,1.18374519
3.95442099e-05,1.15075365
4.17177256e-05,1.12037523
4.38912412e-05,1.09228226
4.6325157e-05,1.06320096
4.90194728e-05,1.03356904
5.17137886e-05,1.00628414
5.44081045e-05,0.981051957
5.90951683e-05,0.941342828
6.41050272e-05,0.903811283
6.91148861e-05,0.870438322
7.53251668e-05,0.833784368
8.15354475e-05,0.80140227
8.82417472e-05,0.770347622
9.33739723e-05,0.748877662
9.85061975e-05,0.729108254
0.000106204535,0.702186148
0.000112566503,0.682054692
0.00011892847,0.663561026
0.000131652405,0.630680471
0.00014348196,0.604122661
0.00015136833,0.588174598
0.000159254701,0.573426345
0.000168085905,0.558159243
0.000177861944,0.542603073
0.000192526001,0.521529725
0.000208361287,0.501320243
0.000226539027,0.480786468
0.000244716767,0.462585357
0.000258287128,0.450269322
0.000273309357,0.437720096
0.0002958427,0.420720137
0.000310864928,0.41042883
0.000329486661,0.398661961
0.000348108395,0.387852382
0.000366730128,0.377876958
0.000385351861,0.368633644
0.000408435583,0.358065028
0.000431519305,0.34835622
0.000454603027,0.339396622
0.000491994177,0.326244864
0.000534916461,0.312882065
0.000577838745,0.301037298
0.000627617489,0.288852481
0.000680824462,0.27733586
0.000734031436,0.267095306
0.000778002101,0.259437761
0.000821972766,0.252403192
0.000887928763,0.242847968
0.000937167375,0.236382292
0.000991673934,0.229794195
0.00104618049,0.223727915
0.00110068705,0.218118016
0.00116172382,0.212310758
0.0012292908,0.206393545
0.00133064127,0.198377722
0.00139820824,0.193525163
0.00148196507,0.187976847
0.00160760032,0.180482152
0.00173323556,0.173817887
0.00188897451,0.166498438
0.00199280047,0.162103081
0.00214853941,0.156117456
0.00227724331,0.151641604
0.00247029915,0.1455956
0.002663355,0.140219506
0.00282289788,0.136199441
0.00298244076,0.132506427
0.00314198364,0.129098396
0.00330152652,0.125940484
0.00349929778,0.122329793
0.00379595465,0.117452452
0.00399372591,0.11450736
0.00421519133,0.111458659
0.00458293072,0.106893351
0.00495067012,0.102846668
0.00537715266,0.0986838079
0.00568105541,0.0960080108
0.00613690953,0.0923734099
0.00666558237,0.0886344625
0.00704230383,0.0862311472
0.00760738602,0.082966665
0.00802924095,0.0807577068
0.00849622936,0.0785069235
0.00896321776,0.0764344152
0.00943020616,0.074517826
0.00995314255,0.0725338097
0.0105320269,0.0705122272
0.0111109113,0.0686507657
0.0116897957,0.0669293455
0.0123380338,0.0651473642
0.0134144218,0.0624789182
0.0144908097,0.0601136093
0.0157391412,0.057680393
0.0166286767,0.056116373
0.01796298,0.0539919252
0.0195104266,0.0518064845
0.0206131054,0.0504017292
0.0217157842,0.0491053751
0.0234388472,0.0472659193
0.0246796157,0.0460624077
0.0260465095,0.0448374208
0.0275395285,0.0436050366
0.0291332469,0.0423955179
0.0308276646,0.0412138824
0.0325220824,0.0401258383
0.0342165001,0.0391196491
0.0361139192,0.0380780603
0.0392645498,0.0365183206
0.0424151804,0.0351357662
0.0460690967,0.0337135167
0.0499746558,0.0323692572
0.0538802149,0.0311739414
0.0571077999,0.0302801216
0.0619491775,0.0290727417
0.066790555,0.0279991384
0.0707915078,0.0271963309
0.0747924606,0.0264588334
0.0787934133,0.0257782452
0.0827943661,0.0251476043
0.0877539947,0.0244265402
0.0927136233,0.0237641356
0.097673252,0.0231528452
0.102632881,0.0225864162
0.108780895,0.0219387703
0.118002917,0.021063922
0.127224939,0.0202860035
0.138656667,0.0194315991
0.150088395,0.0186767653
0.162433182,0.0179528683
0.171880453,0.0174523903
0.186051359,0.016774406
0.201354104,0.0161242074
0.213065053,0.0156746811
0.224776002,0.0152607565
0.236486951,0.014877969
0.249600941,0.0144817113
0.264117973,0.0140779467
0.278635005,0.0137061587
0.293152036,0.0133623374
0.309408294,0.0130064163
0.327403779,0.0126437516
0.354397007,0.0121524554
0.383546201,0.0116812893
0.417007326,0.0112025514
0.450468452,0.0107781882
0.4892747,0.0103416303
0.51692724,0.0100610133
0.558406049,0.00967983482
0.606510735,0.00928770007
0.640789152,0.00903563657
0.709345986,0.00858746689
0.751837918,0.00834100273
0.794329851,0.00811458245
0.879313717,0.00771200286
0.958323975,0.00738681719
1.01099748,0.00719153236
1.06367099,0.00701093221
1.15530244,0.00672669779
1.2532445,0.00645803144
1.35118655,0.00621911659
1.47259669,0.00595669205
1.55353678,0.00579909323
1.67494691,0.00558445818
1.77528121,0.00542394798
1.92578266,0.00520711001
2.02611696,0.00507616423
2.1384719,0.00494060108
2.26284749,0.0048024591
2.38722308,0.00467524713
2.51159867,0.0045575948
2.6508752,0.00443579158
2.88214139,0.00425337148
3.19049631,0.00404168151
3.47717662,0.00387066077
3.76385694,0.00371953988
4.0734346,0.00357458223
4.42880693,0.00342726267
4.78417926,0.0032966448
5.04947796,0.00320824024
5.34316047,0.00311814345
5.78368423,0.0029960603
6.07736675,0.00292213462
6.44141908,0.00283758935
6.80547141,0.0027599017
7.16952374,0.00268819012
7.53357607,0.00262172403
7.98485967,0.00254570574
8.43614327,0.00247584914
8.88742687,0.00241136227
9.61841873,0.00231666234
10.4575435,0.00222038876
11.2966683,0.00213500078
12.2698359,0.00204710487
13.3100249,0.00196396975
14.350214,0.00188999186
15.2098345,0.00183463655
16.0694549,0.00178375402
17.3588856,0.00171458755
18.3214937,0.00166774827
19.3870895,0.00161998871
20.4526853,0.00157597971
21.518281,0.00153525186
22.7115415,0.00149305872
24.0324666,0.00145003003
25.3533918,0.00141037409
26.674317,0.001373669
28.9722141,0.0013158352
31.4283659,0.00126108691
33.8845177,0.0012123264
36.9291927,0.0011586769
39.9738677,0.00111118741
43.2617228,0.00106555349
45.7778664,0.00103394646
48.2940099,0.00100479765
52.0682252,0.000965026826
55.1872667,0.000935225519
58.3063082,0.000907797918
61.4253496,0.00088244052
64.5443911,0.000858901682
70.3439924,0.000819271427
74.2103933,0.000795408446
78.0767941,0.000773293865
84.8028311,0.000738392653
91.9920858,0.000705284833
99.1813405,0.000675737395
105.122598,0.000653570657
114.034483,0.000623521558
122.946369,0.000596691253
130.311222,0.00057655503
137.676075,0.000557997994
148.723354,0.000532695313
156.97056,0.000515507299
166.10012,0.000497935401
175.229679,0.000481700692
184.359238,0.000466638741
200.241128,0.000442835999
211.558238,0.000427469456
222.875348,0.000413240667
241.206871,0.000392268104
255.235695,0.000377707014
276.278932,0.000357899833
299.002905,0.000338815355
316.393202,0.000325570175
333.7835,0.000313337881
351.173797,0.00030199576
370.647556,0.000290225356
392.204775,0.000278203215
413.761995,0.000267109592
435.319214,0.000256832519
472.82041,0.000240630083
512.904288,0.000225293796
552.988166,0.000211650143
586.113801,0.000201451687
602.676619,0.000196673923
652.365071,0.000183467735
685.490706,0.000175492529
726.553637,0.000166399496
767.616567,0.000158077426
808.679498,0.000150430853
849.742429,0.000143380086
900.644526,0.000135367206
926.095575,0.000131631488
976.997672,0.000124643778
1002.44872,0.000121371693
1053.35082,0.000115227026
1084.90024,0.000111664043
1147.99909,0.00010504263
1211.09793,9.90211391e-05
1242.64735,9.62116281e-05
1305.7462,9.0954522e-05
1383.96428,8.50375302e-05
1462.18235,7.9700841e-05
1540.40043,7.48704751e-05
1579.50947,7.26257057e-05
1643.94776,6.91525584e-05
1719.31315,6.54170379e-05
1794.36737,6.20150794e-05
1869.4216,5.89043263e-05
1919.45775,5.69827582e-05
1987.97633,5.4542041e-05
2038.01248,5.2898234e-05
2094.58428,5.11851561e-05
2144.62043,4.98086834e-05
2209.66742,4.82460874e-05
2269.7108,4.70973981e-05
2309.73972,4.65516382e-05
2349.76864,4.62641921e-05
2368.98252,4.62535819e-05
2385.79467,4.63344489e-05
2402.00638,4.65118325e-05
2419.81925,4.68489254e-05
2432.02807,4.7187879e-05
2445.38772,4.76851136e-05
2459.84817,4.84100894e-05
2469.8554,4.90543902e-05
2480.99453,4.99436798e-05
2487.23012,5.05366531e-05
2495.97427,5.15065812e-05
2506.40681,5.29198804e-05
2514.88794,5.43241362e-05
2523.29401,5.59994466e-05
2531.70008,5.80276898e-05
2535.80305,5.91730381e-05
2539.90601,6.04379627e-05
2546.71093,6.2843223e-05
2549.31281,6.38796048e-05
2553.91613,6.58973014e-05
2560.12061,6.9050972e-05
2563.92336,7.12765191e-05
2567.92625,7.39043931e-05
2571.92915,7.6872705e-05
2575.93204,8.02406645e-05
2579.93493,8.40809389e-05
2581.93638,8.62055028e-05
2585.93927,9.09297156e-05
2588.94144,9.49514079e-05
2591.94361,9.94548538e-05
2594.94578,0.00010451873
2597.94794,0.00011023845
2600.95011,0.000116730627
2603.95228,0.000124138984
2605.95373,0.000129673412
2607.95517,0.000135757273
2609.45626,0.000140725099
2610.95734,0.000146079779
2612.45843,0.000151862232
2614.71005,0.000161441398
2616.21114,0.000168511102
2618.46277,0.000180303506
2619.96385,0.000189069862
2620.96457,0.000195368935
2621.9653,0.000202067668
2623.46638,0.000212941386
2624.4671,0.000220798143
2625.46783,0.000229192605
2626.46855,0.000238174805
2627.46927,0.000247800731
2628.47,0.000258133199
2629.47072,0.000269242874
2630.47144,0.00028120948
2631.47216,0.000294123227
2632.47289,0.000308086515
2633.47361,0.000323215958
2634.47433,0.000339644824
2635.47506,0.000357525972
2636.47578,0.000377035407
2636.97614,0.000387463112
2637.97686,0.000409806537
2638.47723,0.000421785908
2639.47795,0.000447538915
2639.97831,0.000461393176
2640.97903,0.000491285194
2641.47939,0.000507426283
2642.48012,0.000542392671
2643.23066,0.000571233384
2643.9812,0.00060260806
2644.73174,0.000636822132
2645.48229,0.000674228459
2646.23283,0.000715236453
2646.73319,0.000744808501
2647.23355,0.000776352595
2647.98409,0.000827763843
2648.48446,0.000865068192
2648.98482,0.000905069318
2649.48518,0.00094803334
2649.98554,0.000994260018
2650.4859,0.00104408799
2650.98626,0.00109790097
2651.23644,0.00112643587
2651.73681,0.00118706303
2651.98699,0.00121928812
2652.48735,0.00128792935
2652.73753,0.00132450884
2653.23789,0.0014026401
2653.73825,0.00148808971
2654.23861,0.00158180032
2654.48879,0.0016320901
2654.98916,0.00174031112
2655.48952,0.0018599083
2655.98988,0.00199253248
2656.49024,0.00214014506
2656.74042,0.00222028736
2656.9906,0.00230509074
2657.24078,0.00239492347
2657.49096,0.00249019094
2657.74114,0.00259134016
2658.11641,0.00275518701
2658.3666,0.00287331913
2658.61678,0.00299930871
2658.86696,0.0031338677
2659.11714,0.0032777905
2659.36732,0.00343196563
2659.6175,0.0035973895
2659.86768,0.00377518244
2660.11786,0.00396660766
2660.36804,0.00417309372
2660.61822,0.0043962611
2660.8684,0.004637954
2660.99349,0.00476639421
2661.24367,0.00503991817
2661.49385,0.00533782624
2661.74404,0.00566310108
2661.99422,0.00601919507
2662.11931,0.00621002865
2662.36949,0.00662008245
2662.61967,0.00707229618
2662.74476,0.00731603947
2662.99494,0.00784302551
2663.09501,0.00806992337
2663.27014,0.00849144859
2663.42025,0.00887966659
2663.59537,0.00936726368
2663.69545,0.00966416552
2663.89559,0.0103019913
2664.09573,0.0110051707
2664.29588,0.0117829214
2664.49602,0.0126461402
2664.64613,0.0133573462
2664.79624,0.0141302416
2664.89631,0.0146833486
2664.99638,0.0152695401
2665.09646,0.0158914988
2665.19653,0.0165521832
2665.2966,0.0172548635
2665.39667,0.0180031607
2665.49675,0.018801093
2665.59682,0.0196531288
2665.69689,0.0205642488
2665.79696,0.021540017
2665.89704,0.0225866648
2665.99711,0.0237111885
2666.09718,0.0249214645
2666.24729,0.0269174303
2666.34736,0.0283836092
2666.44743,0.0299722284
2666.54751,0.031697207
2666.62256,0.0330899295
2666.69761,0.034575854
2666.79769,0.036716782
2666.84772,0.0378620129
2666.94779,0.0403178672
2667.04787,0.0430184018
2667.0979,0.0444706025
2667.19798,0.0476022625
2667.24801,0.0492922899
2667.34808,0.0529507008
2667.42314,0.0559651788
2667.49819,0.0592411148
2667.57325,0.0628091729
2667.6483,0.0667045694
2667.72336,0.0709678921
2667.79841,0.0756460931
2667.87346,0.0807936964
2667.9235,0.0845171804
2667.97354,0.088498751
2668.04859,0.0950079363
2668.09863,0.0997451832
2668.14866,0.10483685
2668.22372,0.113217144
2668.27375,0.119358705
2668.32379,0.125998436
2668.37383,0.133189777
2668.42386,0.140993218
2668.4739,0.149477386
2668.52393,0.158720312
2668.57397,0.168810918
2668.62401,0.179850756
2668.67404,0.191956037
2668.69906,0.198449121
2668.7491,0.212408478
2668.79913,0.227804508
2668.82415,0.236099233
2668.87419,0.254013251
2668.92422,0.273891354
2668.94924,0.284649504
2668.98677,0.3019147
2669.01179,0.314236204
2669.04931,0.334046492
2669.08684,0.355596541
2669.12437,0.379066245
2669.16189,0.404653213
2669.19942,0.43257319
2669.23695,0.463059769
2669.27448,0.496362979
2669.312,0.532746226
2669.34953,0.572480815
2669.38706,0.615837097
2669.41208,0.646880843
2669.43709,0.679717058
2669.46211,0.714404128
2669.49964,0.769996453
2669.51965,0.801413413
2669.55968,0.867900468
2669.5797,0.902911619
2669.61973,0.976174788
2669.65975,1.05307789
2669.76983,1.27108352
2669.80986,1.34573071
2669.83988,1.39700795
2669.8599,1.42810329
2669.87991,1.45619488
2669.89993,1.4808432
2669.91994,1.50164024
2669.93996,1.51822519
2669.95997,1.5302992
2669.97999,1.53763847
2670.0,1.54010436
2670.03002,1.53458851
2670.05004,1.52487021
2670.07005,1.51051873
2670.09007,1.49179676
2670.11008,1.4690358
2670.13009,1.44262214
2670.15011,1.41298143
2670.18013,1.36345564
2670.22016,1.29035928
2670.36026,1.0143724
2670.40029,0.939169792
2670.4203,0.903052496
2670.46033,0.834197604
2670.48035,0.801556356
2670.52538,0.732599131
2670.5504,0.696968543
2670.57542,0.66321269
2670.60043,0.631279776
2670.62545,0.60110596
2670.65047,0.572619173
2670.67549,0.545742184
2670.71302,0.508269836
2670.75054,0.473967275
2670.78807,0.442567766
2670.8256,0.413816421
2670.86312,0.387473979
2670.90065,0.363318692
2670.92567,0.348328961
2670.9632,0.327375328
2670.98821,0.31435165
2671.02574,0.296115509
2671.05076,0.284760705
2671.07578,0.274000902
2671.1008,0.263798786
2671.15083,0.244930862
2671.17585,0.236202453
2671.22589,0.220015965
2671.27592,0.205357388
2671.32596,0.192050673
2671.37599,0.179942769
2671.42603,0.168900424
2671.47607,0.158807419
2671.5261,0.149562199
2671.57614,0.141075838
2671.62617,0.1332703
2671.67621,0.126076953
2671.72625,0.119435302
2671.77628,0.113291903
2671.8013,0.110392045
2671.85134,0.104908995
2671.90137,0.0998156769
2671.97643,0.0928304017
2672.05148,0.086540204
2672.12654,0.0808575432
2672.20159,0.0757079762
2672.27664,0.0710279216
2672.3517,0.0667628469
2672.40174,0.0641265445
2672.47679,0.0604519342
2672.52683,0.0581728221
2672.60188,0.0549857773
2672.65192,0.0530028439
2672.75199,0.0493426535
2672.80202,0.0476517794
2672.9021,0.0445185051
2673.00217,0.0416819806
2673.05221,0.0403635299
2673.15228,0.037906291
2673.25235,0.0356653484
2673.37744,0.0331313709
2673.50253,0.0308567403
2673.6026,0.0292007236
2673.70268,0.0276739291
2673.80275,0.026263328
2673.90282,0.0249574846
2674.00289,0.0237463287
2674.10296,0.0226209658
2674.20304,0.0215735169
2674.30311,0.0205969831
2674.40318,0.0196851307
2674.50325,0.0188323936
2674.60333,0.0180337894
2674.75343,0.0169277279
2674.85351,0.0162458688
2674.95358,0.0156043528
2675.10369,0.0147109979
2675.2538,0.013892187
2675.4039,0.0131398736
2675.60405,0.0122282754
2675.70412,0.0118076632
2675.90427,0.0110290707
2676.00434,0.0106683706
2676.20448,0.00999816439
2676.30455,0.00968653748
2676.45466,0.00924577062
2676.57975,0.00890109282
2676.72986,0.00851239064
2676.90499,0.00809032641
2677.13015,0.00759239072
2677.38033,0.00709136163
2677.63051,0.00663850901
2677.88069,0.00622785576
2678.13087,0.00585432271
2678.38106,0.00551357165
2678.63124,0.00520187945
2678.88142,0.00491603639
2679.00651,0.00478192498
2679.25669,0.00452976104
2679.50687,0.00429716248
2679.88214,0.00398070409
2680.25741,0.0036982188
2680.63268,0.00344501482
2681.00795,0.00321718271
2681.38322,0.00301144402
2681.7585,0.00282503292
2682.13377,0.00265560303
2682.50904,0.00250115337
2682.88431,0.00235996911
2683.25958,0.00223057386
2683.50976,0.00215022214
2684.01012,0.00200221202
2684.2603,0.00193396814
2684.76066,0.00180772215
2685.26103,0.00169366502
2685.51121,0.0016407228
2686.01157,0.00154217249
2686.51193,0.00145242883
2686.76211,0.00141053519
2687.26247,0.00133213675
2687.76283,0.0012602586
2688.26319,0.00119419717
2688.76356,0.00113334126
2689.01374,0.0011046961
2689.5141,0.00105067031
2690.01446,0.00100063918
2690.51482,0.000954218265
2691.01518,0.000911068309
2691.51554,0.000870888968
2692.01591,0.000833413599
2692.51627,0.000798404819
2693.01663,0.00076565073
2693.51699,0.000734961712
2694.26753,0.000692432852
2694.76789,0.000666199301
2695.26826,0.000641506172
2696.0188,0.000607098953
2696.76934,0.000575540295
2697.51988,0.000546524016
2698.52061,0.000511335487
2699.52133,0.000479658221
2700.52205,0.000451039764
2701.02241,0.000437755872
2702.02314,0.000413028138
2702.5235,0.000401509654
2703.52422,0.000379997466
2704.02458,0.00036994461
2705.02531,0.000351113142
2705.52567,0.000342287166
2706.52639,0.000325708338
2707.02675,0.0003179172
2708.52784,0.00029633291
2710.02892,0.000277124722
2711.53,0.000259955673
2712.53073,0.000249502572
2714.03181,0.000235134701
2715.03254,0.000226341214
2716.53362,0.000214195625
2717.53434,0.000206727481
2719.03543,0.000196367457
2720.03615,0.000189970498
2721.53723,0.000181061569
2722.28778,0.000176890694
2723.78886,0.000169064034
2725.28995,0.000161862842
2727.54157,0.00015209352
2729.7932,0.000143400412
2732.04483,0.000135630322
2734.04627,0.000129395398
2735.04699,0.00012648985
2737.04844,0.000121060987
2740.05061,0.000113766019
2742.05206,0.000109396235
2744.0535,0.000105372278
2746.05495,0.000101658276
2748.05639,9.82228905e-05
2750.05784,9.50386514e-05
2752.05929,9.20813925e-05
2755.06146,8.80251218e-05
2758.06362,8.43701557e-05
2760.06507,8.213045e-05
2764.06796,7.80644764e-05
2768.07085,7.44763e-05
2772.07375,7.12926001e-05
2776.07664,6.84536122e-05
2781.9809,6.4793648e-05
2786.08387,6.25623544e-05
2790.68719,6.03154809e-05
2796.0911,5.79735009e-05
2802.14547,5.56689215e-05
2808.29992,5.36148497e-05
2812.50296,5.23541652e-05
2816.70599,5.11938439e-05
2825.11206,4.91318563e-05
2830.11568,4.80447759e-05
2837.0707,4.66800864e-05
2847.07793,4.4967226e-05
2857.6856,4.34134148e-05
2870.1446,4.18594674e-05
2884.60505,4.03408568e-05
2900.16629,3.89681221e-05
2915.77757,3.77989723e-05
2930.18798,3.6863459e-05
2945.79926,3.59729785e-05
2962.61141,3.51281182e-05
2990.23136,3.39369287e-05
3030.26028,3.25200327e-05
3059.48139,3.16472182e-05
3083.20003,3.10119385e-05
3130.33258,2.98947367e-05
3170.3615,2.90593945e-05
3220.39765,2.81217434e-05
3295.45187,2.68764071e-05
3370.5061,2.57708418e-05
3470.5784,2.44539821e-05
3520.61455,2.38487966e-05
3620.68685,2.27250464e-05
3708.5351,2.18200284e-05
3821.97142,2.07474597e-05
3905.98571,2.00150628e-05
3990.0,1.93308393e-05
4109.36737,1.84364725e-05
4188.94563,1.78893132e-05
4268.52387,1.73815373e-05
4358.39735,1.68575436e-05
4458.56605,1.63420899e-05
4508.6504,1.61157494e-05
4608.8191,1.57420338e-05
4683.94563,1.55535461e-05
4723.3745,1.54982229e-05
4755.61003,1.54820838e-05
4791.30768,1.55023964e-05
4829.19024,1.55799528e-05
4849.22398,1.56503263e-05
4889.29146,1.58706122e-05
4914.73431,1.60813707e-05
4934.76805,1.62978723e-05
4955.95373,1.658754e-05
4975.98747,1.6933105e-05
4994.86927,1.73390616e-05
5008.69255,1.76973715e-05
5025.52089,1.8219829e-05
5041.74822,1.88347343e-05
5049.56138,1.91780013e-05
5059.57825,1.96712508e-05
5067.89225,2.01326497e-05
5075.70541,2.06157474e-05
5085.17135,2.12752143e-05
5090.73072,2.17057442e-05
5099.64573,2.24732323e-05
5104.65416,2.29514156e-05
5112.11673,2.37358434e-05
5118.35223,2.44660454e-05
5125.91497,2.54573421e-05
5132.75149,2.64689128e-05
5139.28749,2.75556391e-05
5146.24922,2.88634965e-05
5152.2343,3.01326948e-05
5158.9456,3.17433863e-05
5165.25623,3.34711074e-05
5171.56686,3.54448397e-05
5177.72723,3.765488e-05
