energy [eV],cross section [b]
1e-05,9.37500572
1.09113378e-05,8.97467734
1.176413e-05,8.64295081
1.24302342e-05,8.40900805
1.332237e-05,8.12139384
1.474672e-05,7.71875737
1.591407e-05,7.42986171
1.68591869e-05,7.21846005
1.835751e-05,6.91738243
1.999999e-05,6.62707117
2.181023e-05,6.34578817
2.27066836e-05,6.22095947
2.35281e-05,6.10950332
2.5324022e-05,5.88901356
2.664444e-05,5.74066579
2.89501689e-05,5.50893618
3.14783525e-05,5.2818985
3.369931e-05,5.10404446
3.671479e-05,4.88960798
3.999999e-05,4.68435205
4.362039e-05,4.4855299
4.705604e-05,4.31858396
5.028348e-05,4.17751796
5.328857e-05,4.0579409
5.898595e-05,3.85681061
6.365528e-05,3.71249162
6.73829881e-05,3.60817771
7.342934e-05,3.45636686
7.999999e-05,3.31120503
8.37586323e-05,3.23625783
9.197275e-05,3.08806233
0.0001,2.96134518
0.00010946428,2.83047912
0.000119440174,2.71002289
0.0001257105,2.64118352
0.0001332237,2.56559291
0.0001474673,2.43860432
0.0001591407,2.34742497
0.0001684983,2.281275
0.0001835751,2.18563912
0.000199961701,2.09410542
0.000205099643,2.06841854
0.0002181024,2.00522775
0.000229397331,1.95574713
0.000242170495,1.90335914
0.00025494366,1.85484625
0.0002664444,1.8141943
0.000285146255,1.75452572
0.0002949314,1.72432102
0.00031690094,1.66357141
0.0003369931,1.61313395
0.0003671479,1.54546671
0.0003999999,1.48064514
0.0004362039,1.41787256
0.000465113734,1.3732901
0.0005028349,1.32057133
0.0005328857,1.28278074
0.000593394312,1.21573224
0.0006365529,1.17372228
0.0006739827,1.14065926
0.0007342934,1.09279755
0.000799066223,1.04757375
0.000822624546,1.03262192
0.000916857837,0.9780051
0.001,0.936432175
0.001090508,0.896727001
0.001176398,0.863358806
0.001257083,0.835195295
0.00133221,0.811300153
0.001474644,0.771117313
0.001591377,0.742294908
0.00167042882,0.724560625
0.00183573,0.691113926
0.002,0.662125822
0.00207638214,0.650076964
0.002181016,0.634039808
0.00230135058,0.617396441
0.002514165,0.590530429
0.002664417,0.573637347
0.002949285,0.545216323
0.00320823304,0.522791327
0.0033699,0.510057821
0.00355583341,0.496726233
0.003671458,0.48865843
0.004,0.468160405
0.004362031,0.448313259
0.004705589,0.431627624
0.005028327,0.417556338
0.005328831,0.405602114
0.005898567,0.385516562
0.006365498,0.371100614
0.00666244881,0.362775417
0.007342914,0.345520219
0.008,0.331021491
0.00828157991,0.32539039
0.009197266,0.308723459
0.01,0.296070131
0.0108726275,0.28395541
0.01176397,0.272985403
0.01257082,0.264081868
0.01332207,0.256536273
0.0143118335,0.247618557
0.01474641,0.24382824
0.01591374,0.234717965
0.01684949,0.228118335
0.01835728,0.218553339
0.02,0.209384609
0.02121058,0.203329216
0.0221133174,0.199214807
0.023960268,0.191381421
0.0253,0.186175257
0.026565,0.181689747
0.0290585685,0.173730047
0.030752,0.168869782
0.0332162008,0.1625031
0.0356,0.15695335
0.0389236744,0.150109263
0.0412885155,0.145738026
0.0436533566,0.141744415
0.0472006183,0.136315232
0.050092,0.132312835
0.052597,0.129123162
0.055227,0.126012976
0.058671474,0.122265585
0.061968217,0.118971784
0.06562215,0.115613638
0.0692760831,0.112522384
0.0729300162,0.109665856
0.0792989072,0.105171666
0.0861117938,0.100917136
0.094456,0.0963554646
0.101393258,0.0930094269
0.10935,0.0895525084
0.119016434,0.0858439518
0.126034194,0.0834152794
0.133051955,0.0811833779
0.143578595,0.0781592983
0.15386,0.0754956401
0.161025075,0.0737960273
0.17811,0.0701658278
0.194736344,0.0671084342
0.20619,0.0652135078
0.2165,0.0636412073
0.235322665,0.0610498372
0.255540178,0.0585851607
0.27631,0.0563341393
0.300888532,0.0539885359
0.31986,0.0523590821
0.342773267,0.0505838311
0.37028,0.0486636533
0.394836974,0.0471299453
0.426075199,0.0453665787
0.45008,0.0441381105
0.47258,0.0430753349
0.52102,0.0410235827
0.57443,0.0390701163
0.63331,0.0372090365
0.69822,0.0354363644
0.758325656,0.0340068976
0.80828,0.0329362152
0.868039777,0.0317857135
0.93568,0.0306116728
1.01719332,0.0293619705
1.0832,0.0284500359
1.14079422,0.0277229391
1.2334949,0.0266630978
1.3166,0.0258054776
1.3824,0.0251828878
1.4516,0.0245757294
1.53326305,0.0239132676
1.61941691,0.0232692891
1.71490523,0.022612708
1.85813772,0.0217210573
1.9452,0.0212291242
2.07232026,0.0205696126
2.2518,0.0197302694
2.4826,0.01879127
2.64971246,0.0181907416
2.874,0.017464669
3.11025935,0.0167901555
3.29365465,0.0163150633
3.4933,0.0158406397
3.75214289,0.0152861724
3.98010754,0.0148416997
4.20807219,0.0144334371
4.4585,0.0140212619
4.6814,0.0136832134
5.1612,0.0130316572
5.6903,0.0124107359
6.2735,0.0118196432
6.85415255,0.0113084482
7.2624,0.01098524
7.86312727,0.0105581582
8.4071,0.0102097985
9.2298185,0.00974405698
9.77405135,0.00946883574
10.3182842,0.00921597947
11.1346335,0.00887165967
11.83,0.0086061974
12.421,0.00839883768
13.042,0.0081964094
13.8406102,0.00795677746
14.6815083,0.00772580784
15.5224064,0.0075135468
17.2042026,0.00713657977
18.7720866,0.00683193305
20.3399707,0.0065626719
22.307,0.00626633382
23.9837822,0.00604378061
25.823,0.00582375566
28.1973703,0.00557337551
29.812403,0.00541989151
31.4274356,0.005278594
34.04623,0.00507189089
36.335,0.00490898339
38.152,0.00479050966
42.062,0.00456227867
46.374,0.00434480278
51.127,0.00413763869
55.7069148,0.00396415433
60.3596732,0.00380818214
65.3893413,0.00365830551
71.172829,0.00350657998
75.538,0.00340338456
83.281,0.00324113654
88.4694933,0.00314475822
95.6585039,0.00302402189
101.23,0.00293936302
106.29,0.00286846689
112.948355,0.00278266909
118.905761,0.00271200614
125.587061,0.00263886658
132.992256,0.00256424493
140.39745,0.00249552508
149.56,0.00241753442
156.107658,0.00236626083
169.914904,0.00226802946
183.72215,0.00218092108
200.42,0.00208769873
216.929115,0.00200680739
232.02,0.00194014285
248.314295,0.00187542491
268.59,0.001802832
290.981645,0.00173210291
308.660484,0.00168157907
326.47,0.00163484946
342.79,0.00159537534
377.93,0.00151922864
416.67,0.00144663601
459.38,0.00137759115
506.46,0.00131177575
558.38,0.00124910393
592.814704,0.00121226544
646.39,0.00116068758
694.676873,0.00111961161
748.28,0.0010785177
800.191091,0.00104291789
863.499622,0.00100373015
909.54,0.000977901651
955.01,0.000954261104
1020.8876,0.0009229361
1105.5,0.000886665701
1160.8,0.000865243812
1268.98719,0.000827457621
1343.8,0.000803985118
1411.0,0.00078453845
1536.85058,0.000751693219
1658.44123,0.000723553896
1800.8,0.000694238354
1960.72127,0.000665334876
2084.7,0.000645182558
2249.35188,0.000621166428
2413.3,0.000599649092
2640.31204,0.000573351127
2793.7,0.00055738949
3080.0,0.000530967421
3395.7,0.000505835725
3565.5,0.000493744747
3765.77003,0.00048058559
4127.5,0.00045929816
4550.6,0.00043776463
5017.0,0.000417353879
5370.00444,0.000403793634
5807.8,0.000388696758
6303.36565,0.000373704463
6723.3,0.000362313181
7232.55474,0.000349993275
7783.0,0.000338054112
8172.2,0.000330431035
8580.8,0.000323019891
9221.23568,0.000312519348
9933.3,0.000302096472
10430.0,0.000295539707
11462.2119,0.000283445329
12678.0,0.000271352427
13890.8769,0.000261113636
14978.8003,0.000253187164
16146.762,0.000245780338
16466.259,0.000244272425
16595.9181,0.000244512357
16635.3796,0.000245318967
16663.5663,0.000246769382
16683.2971,0.000248951123
16697.3904,0.000251942959
16707.2558,0.000255581772
16714.3025,0.000259690653
16718.5305,0.000263174725
16721.3492,0.000266126028
16724.1679,0.000269760718
16726.2819,0.000273068423
16729.1006,0.000278505403
16731.2146,0.000283594958
16733.3286,0.000289844178
16735.4426,0.000297633021
16737.2042,0.000305688997
16738.9659,0.000315644796
16740.0229,0.000322788425
16740.7276,0.000328147203
16742.1369,0.00034060503
16742.8416,0.000347876491
16743.5463,0.000355985554
16744.2509,0.000365065829
16744.9556,0.000375278653
16745.6603,0.000386820287
16746.3649,0.000399931391
16746.8934,0.000410971162
16747.4219,0.000423211615
16748.1266,0.000441716722
16748.6551,0.000457522442
16749.1836,0.000475282229
16749.7121,0.000495331535
16750.2406,0.000518080922
16750.7691,0.000544037149
16751.2976,0.00057383151
16751.8261,0.000608258379
16752.1785,0.000634271364
16752.3546,0.000648328414
16752.6365,0.000672441455
16752.8479,0.000691961229
16753.1298,0.000720119387
16753.3412,0.000743006516
16753.623,0.000776165297
16753.9049,0.000812721238
16754.0458,0.000832419661
16754.3277,0.000874996217
16754.6096,0.000922337314
16754.8914,0.000975178889
16755.1028,0.00101894454
16755.3847,0.00108364613
16755.5256,0.00111905969
16755.6666,0.00115674779
16755.8075,0.00119690862
16755.9484,0.00123976236
16756.1598,0.00130963603
16756.3008,0.00136035764
16756.4417,0.00141476331
16756.5826,0.00147321665
16756.7236,0.00153612703
16756.8645,0.00160395655
16757.0054,0.00167722843
16757.1464,0.00175653682
16757.2873,0.00184255864
16757.4282,0.00193606766
16757.5692,0.00203795148
16757.7101,0.00214923207
16757.8511,0.00227109062
16757.992,0.00240489805
16758.0625,0.00247677188
16758.2034,0.00263158197
16758.3443,0.00280286515
16758.4853,0.00299301368
16758.5557,0.00309602889
16758.6614,0.00326160007
16758.7319,0.00338000385
16758.8376,0.00357090761
16758.9081,0.00370787011
16759.0138,0.00392945312
16759.0842,0.00408898778
16759.1899,0.00434805378
16759.2604,0.0045352945
16759.3661,0.00484059496
16759.4718,0.00517889676
16759.5775,0.00555500598
16759.648,0.00582951576
16759.7537,0.00628179354
16759.7889,0.00644446382
16759.8594,0.00678954284
16759.8946,0.00697264509
16759.9651,0.00736187797
16760.0003,0.00756884449
16760.0708,0.008009777
16760.106,0.00824475556
16760.1765,0.0087465297
16760.2117,0.00901455799
16760.2822,0.00958830474
16760.3526,0.0102174206
16760.4231,0.0109088301
16760.4936,0.0116704866
16760.564,0.0125115385
16760.6345,0.0134425206
16760.6873,0.0142070084
16760.7226,0.0147513755
16760.7578,0.015325675
16760.793,0.0159319151
16760.8283,0.0165722484
16760.8635,0.017248981
16760.8987,0.0179645804
16760.934,0.0187216836
16760.9692,0.0195231043
16761.0044,0.0203718382
16761.0397,0.0212710671
16761.0749,0.0222241595
16761.1278,0.0237626129
16761.163,0.0248662903
16761.2158,0.0266487749
16761.2511,0.02792774
16761.3039,0.029992626
16761.3568,0.0322457099
16761.4096,0.0347002873
16761.4625,0.0373678773
16761.4977,0.039268899
16761.5294,0.0410650944
16761.5717,0.043585628
16761.5999,0.0453444172
16761.6563,0.0490406824
16761.7408,0.0549671147
16761.8959,0.066295424
16761.9522,0.0701742342
16761.9945,0.0728386439
16762.0227,0.0744543533
16762.0509,0.075913959
16762.0791,0.0771946215
16762.1073,0.078275141
16762.1354,0.0791367682
16762.1636,0.0797639761
16762.1918,0.0801451361
16762.22,0.0802730459
16762.2482,0.080145266
16762.2764,0.0797642346
16762.3046,0.0791371529
16762.3327,0.0782756483
16762.3609,0.0771952468
16762.3891,0.0759146968
16762.4173,0.0744551973
16762.4455,0.0728395873
16762.4878,0.0701753131
16762.5441,0.0662966571
16762.6992,0.0549686228
16762.7555,0.0509724503
16762.8119,0.0471653731
16762.8683,0.0435872413
16762.9247,0.0402584017
16762.9775,0.03736949
16763.0304,0.0347018876
16763.0832,0.0322472922
16763.1361,0.0299941859
16763.1713,0.0285975282
16763.2065,0.0272803707
16763.2418,0.0260385115
16763.277,0.0248677775
16763.3122,0.0237640802
16763.3475,0.0227234548
16763.3827,0.0217420889
16763.4179,0.0208163402
16763.4532,0.0199427475
16763.4884,0.0191180355
16763.5236,0.0183391158
16763.5589,0.0176030845
16763.5941,0.0169072171
16763.647,0.0159331877
16763.6822,0.015326928
16763.7174,0.0147526092
16763.7703,0.0139466646
16763.8407,0.0129662384
16763.876,0.0125126891
16763.9464,0.0116716025
16763.9817,0.0112814349
16764.0521,0.0105559341
16764.0874,0.0102184714
16764.1578,0.00958932499
16764.1931,0.00929591235
16764.2635,0.00874750657
16764.2988,0.00849110419
16764.3692,0.00801071323
16764.4045,0.0077855708
16764.4749,0.00736277616
16764.5102,0.00716417459
16764.5806,0.00679040537
16764.6159,0.00661445269
16764.6863,0.00628262261
16764.792,0.00583031343
16764.8625,0.00555578375
16764.9682,0.00517964617
16765.0387,0.00495020575
16765.1444,0.00463436556
16765.2148,0.00444082698
16765.2853,0.00425958811
16765.3558,0.00408964623
16765.4615,0.00385396102
16765.5319,0.00370849294
16765.6024,0.00357151703
16765.6729,0.00344239418
16765.7433,0.00332054343
16765.8138,0.00320543582
16765.9547,0.00299356243
16766.0957,0.00280339221
16766.2366,0.00263208862
16766.3775,0.00247725929
16766.448,0.00240537624
16766.5889,0.00227155112
16766.7299,0.00214967581
16766.8708,0.00203837933
16766.9765,0.00196113246
16767.0822,0.00188873011
16767.2232,0.00179905404
16767.4346,0.00167759994
16767.5755,0.00160431554
16767.7164,0.00153647401
16767.9278,0.00144378949
16768.0688,0.00138739733
16768.2097,0.00133486612
16768.4211,0.00126256841
16768.6325,0.00119718833
16768.8439,0.00113787386
16769.0553,0.00108389975
16769.2667,0.00103464565
16769.4781,0.000989578465
16769.6895,0.000948238072
16769.9714,0.000898233154
16770.1123,0.000875194356
16770.3942,0.00083260486
16770.5351,0.000812900209
16770.817,0.00077633226
16770.9579,0.000759349415
16771.3102,0.000720266629
16771.6978,0.00068217202
16772.0854,0.000648447477
16772.4377,0.000621037825
16772.6139,0.000608359866
16772.9662,0.000584837954
16773.3185,0.000563508176
16773.6709,0.000544106659
16774.0232,0.000526408028
16774.5517,0.000502637305
16774.904,0.000488406832
16775.4325,0.000469149121
16775.7849,0.000457537281
16776.3134,0.000441719325
16776.6657,0.000432121402
16777.1942,0.000418970757
16778.0751,0.000399896207
16778.7797,0.000386771048
16779.8367,0.000369949912
16780.8937,0.000355896899
16781.9507,0.000344036369
16783.0077,0.000333934843
16784.0647,0.000325260873
16785.1217,0.000317757534
16786.1788,0.00031122319
16787.5881,0.00030374618
16788.9974,0.000297415948
16790.4068,0.000292009236
16791.8161,0.000287354579
16794.6348,0.000279795972
16798.1581,0.000272726197
16801.6815,0.000267457972
16805.9095,0.000262733706
16810.1375,0.000259197282
16814.3655,0.000256479737
16821.4122,0.000253165915
16827.0496,0.000251246194
16841.1429,0.000248088932
16860.8737,0.000245678612
16883.4231,0.000244171935
16916.9653,0.000242936176
16956.9906,0.000242098591
17044.0877,0.000241078126
17197.9874,0.000239973123
17839.0,0.000236476135
18731.0,0.000232209011
19819.4201,0.00022753253
21683.0,0.000220570972
23906.0,0.000213741386
26356.0,0.00020766808
29058.0,0.000202400061
30902.0727,0.000199855526
31218.9821,0.000199982684
31324.6185,0.000200358731
31403.8459,0.000200991919
31462.3715,0.000201895145
31510.5462,0.000203233434
31542.6627,0.000204713368
31574.7792,0.000207099739
31590.8375,0.000208875482
31603.6841,0.000210738199
31622.954,0.000214661037
31631.1116,0.000216921151
31640.0079,0.000219977042
31648.6472,0.000223739884
31654.8136,0.00022706755
31662.9069,0.000232538245
31667.9171,0.000236752548
31673.7944,0.000242775922
31679.3345,0.000249857606
31682.5462,0.000254769018
31685.5812,0.000260087209
31689.9731,0.000269224746
31692.3979,0.000275167051
31694.5899,0.000281206971
31696.6855,0.000287673653
31698.9176,0.000295431561
31700.8365,0.000302939091
31702.9883,0.000312442367
31705.0117,0.000322611659
31707.035,0.000334204065
31709.0102,0.000347159115
31710.9532,0.000361799846
31712.6875,0.000376772535
31713.5225,0.000384725922
31714.8072,0.000398041381
31715.4816,0.00040561077
31716.7663,0.000421270815
31718.0188,0.000438312436
31718.6612,0.000447819951
31719.3035,0.000457903787
31720.267,0.000474215464
31721.2305,0.000492114164
31721.8728,0.000505031913
31722.8363,0.000526066235
31723.7998,0.000549340571
31724.7633,0.000575184582
31725.4056,0.000594032389
31726.048,0.000614330017
31727.0115,0.00064783418
31727.6538,0.000672469891
31728.6173,0.000713400722
31729.2596,0.000743704104
31729.9019,0.000776761909
31730.5443,0.000812918304
31731.1866,0.000852572941
31731.7486,0.000890505022
31732.4713,0.000944322142
31733.1939,0.001004667
31733.9165,0.00107263948
31734.6391,0.00114958125
31734.88,0.00117749644
31735.3618,0.00123714246
31735.6829,0.00127998565
31736.0041,0.00132553432
31736.3252,0.00137402113
31736.807,0.00145283303
31737.1282,0.00150985939
31737.6099,0.00160297371
31737.9311,0.00167066848
31738.4128,0.0017817662
31738.734,0.00186296519
31739.2157,0.00199699202
31739.5369,0.00209553947
31739.6975,0.00214787771
31740.0186,0.00225926529
31740.3398,0.00238047672
31740.5807,0.00247854135
31740.8216,0.00258336648
31741.1427,0.00273475958
31741.3033,0.00281591846
31741.6245,0.00299037054
31741.9456,0.00318285729
31742.2668,0.00339595264
31742.588,0.00363270657
31742.8288,0.00382795934
31742.9894,0.00396752448
31743.15,0.00411529479
31743.3106,0.00427192619
31743.4712,0.00443814145
31743.6317,0.00461473856
31743.7923,0.00480260032
31743.9529,0.00500270535
31744.1135,0.00521614092
31744.2741,0.00544411768
31744.4347,0.00568798689
31744.5952,0.00594926045
31744.7558,0.00622963438
31744.9967,0.00669024741
31745.1573,0.00702726311
31745.3179,0.00739121076
31745.4784,0.0077850375
31745.639,0.00821210481
31745.7996,0.00867626039
31745.9602,0.00918192503
31746.1208,0.00973419818
31746.2814,0.0103389868
31746.4419,0.011003164
31746.6025,0.0117347643
31746.7631,0.0125432284
31746.9237,0.0134397079
31747.0843,0.0144374519
31747.1646,0.01497913
31747.285,0.0158514585
31747.3653,0.0164766024
31747.4456,0.0171399342
31747.5259,0.0178446269
31747.6062,0.0185941897
31747.6865,0.0193925121
31747.7667,0.0202439137
31747.847,0.0211532032
31747.9675,0.0226375853
31748.0478,0.0237164835
31748.1682,0.025486655
31748.2485,0.0267800681
31748.3689,0.0289142948
31748.4492,0.030483015
31748.4894,0.0313159729
31748.5697,0.0330882695
31748.65,0.0350162171
31748.6901,0.0360443123
31748.7704,0.038241784
31748.8507,0.0406474069
31748.8908,0.0419365774
31748.9711,0.044706636
31749.0113,0.0461960765
31749.0916,0.0494079381
31749.1317,0.051141297
31749.204,0.0545003793
31749.2602,0.057347691
31749.3083,0.0599699815
31749.3645,0.0632634985
31749.4288,0.0673713309
31749.493,0.0718929842
31749.5572,0.0768858198
31749.6215,0.0824174646
31749.6857,0.0885680907
31749.7178,0.0919047016
31749.7499,0.0954333055
31749.7821,0.0991688704
31749.8142,0.103127847
31749.8463,0.107328347
31749.8784,0.111790349
31749.9105,0.116535933
31749.9587,0.12424023
31749.9908,0.129807697
31750.039,0.138885507
31750.0711,0.145475111
31750.1193,0.156271442
31750.1514,0.164147954
31750.1996,0.177122584
31750.2317,0.186641745
31750.2477,0.191690182
31750.2799,0.202417905
31750.312,0.214066341
31750.3361,0.223471045
31750.3602,0.233505053
31750.3762,0.240571865
31750.4083,0.255695285
31750.4244,0.263793131
31750.4565,0.281176564
31750.4726,0.290513954
31750.5047,0.310625867
31750.5207,0.321466132
31750.5529,0.344901307
31750.5769,0.364180949
31750.593,0.377935143
31750.6091,0.392473371
31750.6331,0.415883299
31750.6492,0.432656273
31750.6653,0.450449383
31750.6893,0.479235704
31750.7054,0.49996117
31750.7215,0.522036672
31750.7456,0.557941687
31750.7616,0.583934661
31750.7777,0.611748444
31750.7937,0.641553038
31750.8098,0.673538207
31750.8258,0.707916205
31750.8419,0.74492494
31750.858,0.78483164
31750.874,0.827937124
31750.8901,0.874580765
31750.8981,0.899347398
31750.9142,0.952033441
31750.9302,1.00931523
31750.9463,1.07171957
31750.9623,1.13984675
31750.9704,1.17626696
31750.9864,1.25429418
31751.0025,1.33994865
31751.0105,1.38593195
31751.0266,1.48487872
31751.0346,1.53813892
31751.0507,1.65305784
31751.0587,1.71508332
31751.0747,1.84928649
31751.0868,1.9597232
31751.0988,2.07950035
31751.1109,2.20957882
31751.1229,2.35102299
31751.135,2.50500857
31751.147,2.67282917
31751.1591,2.85590028
31751.1671,2.98717449
31751.1751,3.12639201
31751.1872,3.35122293
31751.1952,3.51254894
31751.2032,3.68365688
31751.2153,3.95985278
31751.2233,4.1577876
31751.2313,4.36736058
31751.2393,4.58903345
31751.2514,4.94506657
31751.2626,5.30349917
31751.2723,5.63093689
31751.2851,6.09576698
31751.298,6.59034037
31751.3108,7.10948048
31751.3461,8.5811085
31751.359,9.08499091
31751.3686,9.43111359
31751.375,9.6410031
31751.3815,9.83061316
31751.3879,9.99697676
31751.3943,10.1373399
31751.4007,10.249267
31751.4072,10.3307409
31751.4136,10.3802511
31751.42,10.396862
31751.4264,10.3802567
31751.4328,10.330752
31751.4393,10.2492836
31751.4457,10.1373618
31751.4521,9.99700381
31751.4585,9.83064514
31751.465,9.64103977
31751.4714,9.43115469
