energy [eV],cross section [b]
1e-05,765.07424
1.09847504e-05,729.975867
1.19695008e-05,699.303335
1.30404498e-05,669.973083
1.42837957e-05,640.150147
1.55271417e-05,613.98524
1.64648733e-05,596.244673
1.75114391e-05,578.153034
1.90812879e-05,553.859894
2.07885508e-05,530.629861
2.2109945e-05,514.529156
2.34313391e-05,499.810404
2.47527333e-05,486.286588
2.62476266e-05,472.235774
2.7916019e-05,457.906906
3.04186076e-05,438.66635
3.31402562e-05,420.267793
3.63000248e-05,401.560181
3.94597935e-05,385.147215
4.31727325e-05,368.2133
4.58324153e-05,357.369858
4.98219396e-05,342.763096
5.45098968e-05,327.692714
5.78680126e-05,318.042566
6.12261285e-05,309.197661
6.45842443e-05,301.051901
6.88242017e-05,291.631317
7.30641591e-05,283.043144
7.73041165e-05,275.1716
8.1544074e-05,267.922262
8.957413e-05,255.631203
9.7604186e-05,244.890028
0.00010633714,234.618908
0.00011647589,224.175259
0.000126614639,215.012615
0.000138528347,205.55915
0.000147062471,199.505733
0.000159863657,191.351421
0.000169518313,185.822563
0.000180293499,180.184296
0.000191068685,175.029974
0.000201843871,170.294106
0.00021403384,165.373692
0.000234440967,158.012447
0.000248045719,153.618123
0.00026165047,149.57115
0.000287416511,142.70962
0.000313182551,136.713323
0.000341203981,130.979441
0.000373736187,125.14925
0.000406268393,120.034188
0.000430804183,116.566031
0.000458187628,113.029246
0.000499262795,108.28012
0.000526646239,105.427615
0.000561220579,102.128692
0.00059579492,99.12127
0.00063036926,96.3648017
0.000686770382,92.3232942
0.000752250731,88.2139093
0.000795904296,85.7608002
0.000839557862,83.5016013
0.000922233357,79.6711999
0.00100490885,76.3238179
0.00109482121,73.1229354
0.00116441194,70.904416
0.00123400266,68.8763225
0.00133838875,66.1361556
0.00142625401,64.0668547
0.00151411927,62.1804064
0.00160198453,60.451377
0.00168984979,58.859025
0.00180078847,57.0174753
0.00191172716,55.3386551
0.00202266584,53.7999294
0.00213360453,52.3828394
0.00234371132,49.9802182
0.00255381811,47.8805837
0.00278231626,45.8728532
0.00304759712,43.8314205
0.00331287798,42.0404087
0.0036246007,40.1925747
0.00384789646,39.00935
0.00418284011,37.4154962
0.00443545462,36.334832
0.00471738787,35.2327963
0.00499932112,34.2253638
0.00528125438,33.2997317
0.00560020549,32.338043
0.00613415892,30.8993251
0.00649012788,30.0404946
0.00684609684,29.2495637
0.00752026651,27.9085942
0.00819443618,26.7367567
0.00892761819,25.616239
0.00977882488,24.476943
0.0106300316,23.477433
0.0112720117,22.7997612
0.0119885008,22.1087021
0.0130632345,21.180801
0.0137797236,20.6234929
0.0146843628,19.9789914
0.0155890021,19.3914655
0.0164936413,18.8529898
0.0173982805,18.3571008
0.0185404781,17.7836346
0.0202537745,17.0162447
0.0219670709,16.340543
0.0244667677,15.4852001
0.0265178131,14.8757754
0.0286460485,14.3140092
0.0304668931,13.8809247
0.03319816,13.2994601
0.0361685039,12.7435318
0.0384675025,12.3582777
0.0407665012,12.0061382
0.0430654998,11.6826315
0.045666357,11.3465679
0.0485690729,11.0039115
0.0514717888,10.6907226
0.0543745047,10.4030126
0.0594908321,9.9482674
0.0649882862,9.52095707
0.0704857404,9.1448084
0.0774268266,8.72854803
0.0843679127,8.36495926
0.0919165756,8.01746902
0.0977591197,7.7767484
0.103601664,7.5567908
0.11236548,7.25977912
0.119742277,7.03563507
0.130807472,6.73591089
0.138184269,6.55657203
0.14652964,6.37038071
0.160500556,6.09212384
0.169814501,5.9262124
0.179128445,5.77356344
0.190402111,5.60418388
0.202161899,5.44303066
0.218165696,5.24533364
0.233591549,5.0746685
0.255863413,4.85657246
0.278135276,4.66580306
0.294932716,4.53681806
0.313679687,4.40563041
0.341800144,4.23012106
0.368951226,4.08077034
0.394163558,3.95672173
0.410971779,3.88074512
0.441503414,3.75459102
0.485112481,3.59672622
0.514998135,3.50112693
0.544883789,3.4141355
0.574769442,3.3346304
0.612503072,3.24352021
0.669103517,3.12324989
0.725703961,3.01924083
0.797167689,2.90667066
0.868631416,2.81105688
0.946350605,2.72264573
1.00650401,2.66348511
1.09673412,2.58739256
1.17085145,2.53453766
1.24373609,2.48980794
1.33671476,2.44177656
1.42969343,2.40254062
1.52828316,2.3692987
1.59588,2.35094768
1.689328,2.33095952
1.782776,2.3166998
1.87893295,2.30752683
1.9743444,2.30356025
2.0958268,2.30545799
2.19956757,2.31293786
2.3925242,2.34059971
2.4906446,2.36138254
2.6284804,2.3982088
2.810704,2.46083983
2.904152,2.49933329
3.091048,2.59004866
3.184496,2.6426855
3.324668,2.73147427
3.418116,2.79768976
3.558288,2.90850161
3.651736,2.9906929
3.7753685,3.1106911
3.885356,3.22929009
3.978804,3.33973019
4.072252,3.45993991
4.212424,3.66069743
4.305872,3.8098132
4.446044,4.0597628
4.492768,4.15087265
4.586216,4.34614481
4.68690419,4.57805587
4.808155,4.89119227
4.913284,5.19730015
5.018413,5.54084401
5.088499,5.7936482
5.158585,6.06792381
5.193628,6.21386355
5.263714,6.52503958
5.3338,6.86449965
5.380524,7.10821857
5.427248,7.36721213
5.497334,7.78720523
5.544058,8.0903484
5.614144,8.58399016
5.660868,8.94184823
5.730954,9.52733411
5.777678,9.95386727
5.847764,10.6554367
5.90608687,11.3032757
5.97037344,12.0949877
6.03466,12.9806045
6.058022,13.3286358
6.104746,14.0713986
6.128108,14.4680172
6.174832,15.3170029
6.198194,15.7717323
6.244918,16.7483008
6.26828,17.2731286
6.315004,18.4043167
6.361728,19.6572536
6.408452,21.0501514
6.431814,21.8057256
6.466857,23.0216525
6.490219,23.8924199
6.525262,25.298673
6.548624,26.3094278
6.583667,27.9481284
6.607029,29.1307346
6.642072,31.0563714
6.665434,32.45233
6.700477,34.7363932
6.73552,37.2793539
6.7530415,38.6603814
6.770563,40.1220645
6.80268575,43.0330967
6.82020725,44.7604688
6.83772875,46.5969953
6.85525025,48.5521085
6.87277175,50.6362839
6.89102331,52.9571266
6.90963991,55.4969981
6.92533625,57.7867241
6.94139762,60.2831265
6.957459,62.948678
6.97352037,65.7990674
6.98958175,68.8518477
7.00710325,72.4361801
7.02316462,75.9786645
7.04068613,80.1539516
7.05966775,85.0854889
7.07718925,90.0607838
7.09471075,95.493582
7.11223225,101.441905
7.12975375,107.97328
7.1385145,111.48178
7.1501955,116.436221
7.15895625,120.375229
7.17063725,125.950437
7.179398,130.39354
7.191079,136.697951
7.19983975,141.735164
7.2086005,147.059565
7.21736125,152.693446
7.22904225,160.729393
7.237803,167.184979
7.249484,176.422433
7.25824475,183.867887
7.26992575,194.559218
7.2786865,203.208016
7.2903675,215.675483
7.3020485,229.337622
7.3137295,244.35221
7.3254105,260.90394
7.3370915,279.210116
7.3476044,297.397232
7.3592854,319.785197
7.366294,334.461168
7.3709664,344.817058
7.3756388,355.664246
7.3826474,372.925943
7.3873198,385.14514
7.3943284,404.637286
7.401337,425.654715
7.4083456,448.360632
7.4153542,472.940623
7.4223628,499.606422
7.4293714,528.600453
7.43638,560.201306
7.4433886,594.730387
7.4503972,632.560036
7.4574058,674.123484
7.4620782,704.153419
7.46622847,732.544234
7.46985661,758.794626
7.4737592,788.637924
7.4784316,826.742396
7.483104,867.675472
7.4901126,935.013695
7.494785,984.350479
7.4994574,1037.68997
7.5017936,1065.99666
7.506466,1126.1888
7.5111384,1191.6099
7.5158108,1262.87927
7.5204832,1340.70985
7.5251556,1425.92565
7.529828,1519.48293
7.5321642,1569.7309
7.5356685,1649.87523
7.5403409,1766.56947
7.5426771,1829.5763
7.5461814,1930.54133
7.5485176,2002.52192
7.5508538,2078.56324
7.55319,2158.97242
7.5566943,2288.52029
7.5590305,2381.39236
7.5625348,2531.52336
7.564871,2639.52502
7.5683753,2814.75487
7.5707115,2941.28971
7.5742158,3147.41337
7.576552,3296.87338
7.5800563,3541.4124
7.5835606,3813.55899
7.5870649,4117.50786
7.588233,4226.72819
7.5905692,4458.25293
7.5917373,4581.01185
7.5940735,4841.76878
7.5952416,4980.31364
7.5975778,5275.23909
7.5987459,5432.28095
7.6010821,5767.34496
7.6022502,5946.17076
7.6045864,6328.62971
7.6069226,6747.49422
7.6092588,7207.26656
7.611595,7713.1133
7.61334715,8126.27455
7.61568335,8727.5744
7.61801955,9393.5194
7.61918765,9753.41968
7.62035575,10132.8635
7.62152385,10533.1539
7.62269195,10955.6886
7.62386005,11401.9657
7.62502815,11873.5899
7.62619625,12372.2782
7.6279484,13175.1028
7.6291165,13749.7479
7.6302846,14358.4236
7.6314527,15003.4079
7.63320485,16044.263
7.63437295,16790.8225
7.6361251,17996.405
7.6372932,18861.4025
7.63904535,20258.0511
7.6407975,21782.4022
7.64254965,23443.9194
7.6443018,25251.0877
7.6454699,26540.1581
7.646638,27898.2127
7.64850696,30215.2966
7.64944144,31439.3731
7.6513104,34011.5274
7.65411384,38134.4808
7.65925348,46010.344
7.66112244,48704.7016
7.66252416,50554.3341
7.66345864,51675.2851
7.66439312,52687.2974
7.6653276,53574.4988
7.66626208,54322.1671
7.66719656,54917.2936
7.66813104,55349.1195
7.66906552,55609.605
7.67,55693.795
7.67093448,55600.051
7.67186896,55330.1289
7.67280344,54889.097
7.67373792,54285.0992
7.6746724,53528.9865
7.67560688,52633.8446
7.67654136,51614.4564
7.67747584,50486.7376
7.67887756,48628.1472
7.68074652,45924.0954
7.68588616,38033.4365
7.68775512,35251.5031
7.68962408,32601.8166
7.69055856,31335.759
7.69242752,28931.7817
7.693362,27795.9664
7.69511415,25786.3369
7.69628225,24532.5441
7.6980344,22776.8078
7.69978655,21164.2298
7.7015387,19685.8433
7.70329085,18331.9566
7.705043,17092.7085
7.70679515,15958.4373
7.7085473,14919.9141
7.71029945,13968.4785
7.7120516,13096.1057
7.71380375,12295.4287
7.7155559,11559.7298
7.716724,11102.3279
7.71847615,10461.6691
7.71964425,10062.636
7.7213964,9502.70108
7.7225645,9153.2872
7.7249007,8506.53223
7.7260688,8207.08281
7.728405,7651.29934
7.7307412,7147.41656
7.7330774,6689.50264
7.7354136,6272.39749
7.7377498,5891.60508
7.740086,5543.20072
7.7424222,5223.75164
7.7447584,4930.24886
7.7470946,4660.04919
7.7494308,4410.82551
7.751767,4180.52441
7.7552713,3866.63731
7.7576075,3676.14183
7.7599437,3499.0588
7.763448,3255.989
7.7669523,3036.8921
7.7704566,2838.77473
7.7739609,2659.08778
7.7774652,2495.65115
7.7809695,2346.5926
7.7833057,2254.40158
7.78681,2125.82802
7.7903143,2007.7936
7.7938186,1899.19133
7.7961548,1831.54721
7.8008272,1706.53427
7.8031634,1648.71444
7.8078358,1541.45357
7.8125082,1444.21547
7.8148444,1398.97285
7.8195168,1314.57422
7.8241892,1237.51339
7.8265254,1201.47384
7.8311978,1133.91738
7.8358702,1071.85045
7.8405426,1014.69809
7.845215,961.958199
7.8498874,913.190822
7.8545598,868.009196
7.8592322,826.07225
7.8639046,787.078315
7.868577,750.759809
7.8755856,700.785008
7.880258,670.169315
7.8849304,641.5018
7.891939,601.805504
7.8966114,577.338728
7.9012838,554.323302
7.9082924,522.279221
7.915301,492.916147
7.9223096,465.944291
7.9316544,433.271034
7.9363268,418.199274
7.9456716,390.306785
7.950344,377.388159
7.9596888,353.390245
7.9643612,342.234641
7.9713698,326.45929
7.9772103,314.1258
7.9842189,300.220109
7.9923956,285.124891
8.0029085,267.321895
8.0145895,249.415221
8.0262705,233.236961
8.0379515,218.572263
8.0496325,205.238593
8.0613135,193.080075
8.0729945,181.962959
8.0846755,171.771967
8.090516,166.992047
8.102197,158.007303
8.113878,149.723071
8.125559,142.068589
8.1313995,138.457807
8.148921,128.408084
8.1664425,119.405605
8.183964,111.310177
8.2014855,104.004273
8.219007,97.388773
8.230688,93.3199486
8.2482095,87.6745278
8.265731,82.5218202
8.2832525,77.8062982
8.2949335,74.881553
8.312455,70.7913526
8.324136,68.2461561
8.347498,63.5470842
8.359179,61.3756971
8.382541,57.3507518
8.394222,55.4836462
8.4117435,52.8476853
8.429265,50.3932869
8.440946,48.8497969
8.464308,45.9660125
8.48767,43.3276245
8.511032,40.9076722
8.534394,38.682792
8.557756,36.6326569
8.581118,34.7395153
8.60448,32.9878097
8.627842,31.3638594
8.651204,29.8555955
8.674566,28.4523385
8.697928,27.1446109
8.72129,25.9239786
8.744652,24.7829163
8.779695,23.205984
8.803057,22.2358942
8.826419,21.3246757
8.861462,20.0582026
8.896505,18.9000216
8.931548,17.8382021
8.966591,16.8624086
9.001634,15.9636518
9.048358,14.8717226
9.07172,14.3668283
9.118444,13.4304095
9.141806,12.9957912
9.18853,12.1868871
9.211892,11.8101709
9.246935,11.2766943
9.281978,10.7782123
9.328702,10.1629183
9.352064,9.87466178
9.39289811,9.39920822
9.445512,8.83518603
9.492236,8.37549202
9.515598,8.1588885
9.562322,7.74999183
9.632408,7.19166441
9.679132,6.85216282
9.725856,6.53606767
9.77258,6.24130209
9.819304,5.96601392
9.866028,5.70854726
9.912752,5.46741802
9.959476,5.2412931
10.041243,4.8781353
10.111329,4.59628065
10.146372,4.46451475
10.216458,4.2176277
10.251501,4.10190357
10.321587,3.88453583
10.391673,3.68433461
10.426716,3.59012611
10.496802,3.41252093
10.566888,3.24817215
10.660336,3.04752656
10.753784,2.86567906
10.800508,2.78110705
10.893956,2.62344868
10.94068,2.54992766
11.034128,2.41252917
11.080852,2.34830294
11.1743,2.22801264
11.221024,2.1716664
11.314472,2.0659352
11.361196,2.01632027
11.501368,1.8792486
11.64154,1.75797624
11.781712,1.6504614
11.9110313,1.56200577
12.062056,1.47022699
12.141028,1.42670721
12.279785,1.35699768
12.416235,1.29615901
12.5736,1.23462716
12.6543,1.20640307
12.8157,1.15628404
12.8964,1.13424619
13.0578,1.09594458
13.1385,1.07960755
13.2999,1.05246437
13.4613,1.03270721
13.6227,1.02053475
13.7034,1.01741997
13.7841,1.01638855
13.90515,1.01897724
13.98585,1.02365289
14.06655,1.03087959
14.1876,1.04695392
14.2683,1.06152787
14.328825,1.07470033
14.38935,1.08996496
14.449875,1.10749921
14.5104,1.12750647
14.570925,1.15022027
14.63145,1.17590936
14.691975,1.20488385
14.7525,1.23750262
14.813025,1.27418241
14.87355,1.31540893
14.9139,1.34569608
14.974425,1.39581221
15.0167347,1.43453411
15.0753,1.49375777
15.135825,1.56270847
15.176175,1.61362127
15.2367,1.69843638
15.297225,1.79485661
15.35775,1.90486762
15.418275,2.03090957
15.458625,2.12530845
15.498975,2.22923639
15.51915,2.28515775
15.5595,2.40579662
15.59985,2.53951866
15.6402,2.68820769
15.68055,2.85410214
15.7108125,2.99140463
15.7511625,3.19417093
15.7713375,3.30502622
15.7915125,3.42289466
15.8116875,3.54836958
15.8318625,3.68210868
15.8520375,3.82484253
15.8722125,3.97738455
15.8923875,4.14064246
15.9125625,4.3156318
15.9327375,4.50349161
15.963,4.81225985
15.9932625,5.157949
16.0134375,5.41187276
16.0336125,5.68699334
16.0437,5.83324311
16.063875,6.14478986
16.08405,6.4842464
16.104225,6.85503333
16.1244,7.26111237
16.144575,7.70709243
16.16475,8.19836071
16.184925,8.74124593
16.2051,9.3432229
16.225275,10.0131709
16.2353625,10.3768719
16.24545,10.7617025
16.2555375,11.169329
16.2706687,11.8275749
16.2807562,12.3006348
16.2908438,12.8037873
16.3009312,13.3396371
16.3110188,13.911077
16.3211062,14.5213271
16.3311937,15.1739799
16.3412813,15.8730532
16.3513687,16.6230524
16.3614562,17.4290426
16.3715438,18.2967347
16.3816312,19.2325861
16.386675,19.7283229
16.3967625,20.7804563
16.40685,21.9210075
16.4118937,22.5275662
16.4219813,23.8202995
16.4320687,25.2298216
16.4371125,25.982821
16.4472,27.5954028
16.4572875,29.3654823
16.4623312,30.3160656
16.4724188,32.3632151
16.4774625,33.4665117
16.48755,35.8516362
16.491585,36.8784657
16.4986463,38.785928
16.5046987,40.5425005
16.51176,42.7485181
16.51983,45.4997013
16.5279,48.52772
16.53597,51.8709212
16.54404,55.5745119
16.55211,59.6920817
16.556145,61.9256126
16.56018,64.287534
16.564215,66.7878496
16.56825,69.4375537
16.572285,72.2487504
16.57632,75.234791
16.580355,78.4104298
16.58439,81.7920053
16.588425,85.3976467
16.59246,89.2475146
16.596495,93.3640785
16.60053,97.7724398
16.604565,102.500709
16.6106175,110.263049
16.6146525,115.938011
16.61667,118.941023
16.620705,125.307372
16.62474,132.197796
16.6267575,135.85758
16.6307925,143.646827
16.6348275,152.12321
16.636845,156.644421
16.64088,166.310265
16.6439063,174.155989
16.6469325,182.567008
16.6499587,191.598432
16.652985,201.31218
16.6560112,211.778005
16.6590375,223.074695
16.6620638,235.291501
16.66509,248.529819
16.6681163,262.905201
16.6711425,278.549758
16.6741687,295.615028
16.6776994,317.55432
16.68123,341.990234
16.6827431,353.32016
16.6847606,369.308625
16.6862737,382.010192
16.6882912,399.971063
16.6898044,414.269567
16.6918219,434.532852
16.693335,450.700475
16.6953525,473.666082
16.69737,498.38832
16.6993875,525.045578
16.701405,553.838666
16.7034225,584.994125
16.70544,618.768099
16.7079619,665.113711
16.7099794,705.901204
16.7109881,727.661962
16.7125012,762.160942
16.7145187,811.937743
16.7155275,838.591234
16.7170406,880.979784
16.7180494,910.959422
16.7195625,958.724945
16.7205712,992.569613
16.7220844,1046.59443
16.7230931,1084.94616
16.7246063,1146.2824
16.7261194,1212.59367
16.7276325,1284.38188
16.7286412,1335.55642
16.7301544,1417.74262
16.7316675,1507.03282
16.7331806,1604.1614
16.7346937,1709.93853
16.7362069,1825.25415
16.73772,1951.07977
16.7387287,2041.31867
16.7397375,2137.02496
16.7412506,2291.59022
16.7422594,2402.4904
16.7432681,2520.09927
16.7447812,2709.88327
16.74579,2845.83164
16.7467987,2989.70243
16.7478075,3141.78276
16.7493206,3385.78542
16.750632,3612.9596
16.7518425,3835.56672
16.753053,4070.17455
16.754667,4400.17125
16.756281,4746.53469
16.7607195,5728.20962
16.7623335,6064.24676
16.763544,6295.0319
16.764351,6434.95559
16.765158,6561.33628
16.765965,6672.19486
16.766772,6765.69462
16.767579,6840.21157
16.768386,6894.40125
16.769193,6927.25733
16.77,6938.15735
16.770807,6926.89175
16.771614,6893.67388
16.772421,6839.12986
16.773228,6764.26945
16.774035,6670.44015
16.774842,6559.26859
16.775649,6432.59362
16.776456,6292.39598
16.7776665,6061.24037
16.7792805,5724.78695
16.783719,4742.39565
16.78614,4228.55248
16.787754,3908.09953
16.788561,3755.62549
16.7897715,3537.1211
16.7906794,3381.41454
16.7916881,3216.62555
16.7932012,2985.39508
16.7947144,2772.63722
16.7962275,2577.35165
16.7977406,2398.38439
16.7987494,2287.53738
16.8002625,2133.05485
16.8012712,2037.40501
16.8027844,1904.07882
16.8037931,1821.48353
16.8048019,1743.55759
16.8058106,1670.00888
16.8068194,1600.5615
16.8078281,1534.95568
16.8088369,1472.94746
16.8098456,1414.30819
16.8108544,1358.82393
16.8118631,1306.29475
16.8128719,1256.53401
16.8138806,1209.36761
16.8153937,1143.13037
16.8174112,1062.47002
16.8194288,989.603659
16.8214463,923.61808
16.8234637,863.720255
16.8254812,809.22078
16.8274988,759.51945
16.8285075,736.301817
16.830525,692.837248
16.8315337,672.48347
16.8335512,634.290908
16.83456,616.364366
16.8365775,582.65148
16.8375863,566.792693
16.8396037,536.905517
16.8406125,522.817025
16.8436388,483.647489
16.8456562,459.874467
16.8486825,427.303982
16.8507,407.437102
16.8537263,380.090103
16.8557437,363.333261
16.85877,340.168185
16.8607875,325.914721
16.8638137,306.133033
16.8658312,293.915045
16.8688575,276.897349
16.870875,266.349868
16.8728925,256.386394
16.87491,246.965138
16.878945,229.599886
16.88298,213.985994
16.887015,199.897954
16.89105,187.145069
16.895085,175.565264
16.8971025,170.171203
16.9011375,160.097774
16.9051725,150.887234
16.9092075,142.444467
16.911225,138.484793
16.91526,131.042502
16.919295,124.181417
16.92333,117.842913
16.9253475,114.853298
16.9314,106.533973
16.9374525,99.0837652
16.943505,92.3862536
16.9495575,86.3437943
16.95561,80.8740159
16.959645,77.5107056
16.9656975,72.8452975
16.97175,68.588262
16.9778025,64.6934531
16.9818375,62.2782546
16.98789,58.90131
16.991925,56.8003428
16.999995,52.9222229
17.008065,49.4283987
17.0121,47.8099664
17.02017,44.8030924
17.024205,43.4051168
17.0302575,41.4279694
17.0383275,38.9956836
17.048415,36.2459588
17.0574937,34.0132668
17.0675812,31.7670363
17.072625,30.7268162
17.0827125,28.7946937
17.0877562,27.8966183
17.0978438,26.2227526
17.1028875,25.4420985
17.112975,23.9825049
17.1180187,23.2996918
17.1281063,22.0193541
17.13315,21.4187139
17.1432375,20.2894785
17.153325,19.2480111
17.1583688,18.7573794
17.1684562,17.8313105
17.1835875,16.5669662
17.193675,15.7981581
17.2088063,14.7426995
17.2188937,14.0975026
17.234025,13.2073778
17.2441125,12.6606752
17.2592438,11.9031079
17.2693313,11.4358468
17.2794187,10.996054
17.2895063,10.58162
17.3046375,10.0033851
17.314725,9.64436795
17.3349,8.98316501
17.355075,8.38917346
17.37525,7.85358924
17.395425,7.36900304
17.4156,6.92914346
17.435775,6.5286737
17.45595,6.16302935
17.476125,5.82828807
17.4862125,5.67142959
17.5063875,5.37683881
17.5265625,5.10551032
17.556825,4.7369984
17.5870875,4.40868818
17.61735,4.1149384
17.6476125,3.85106335
17.677875,3.61314511
17.7081375,3.39788748
