energy [eV],cross section [b]
1e-05,180.687075
1.06172223e-05,175.356403
1.15430557e-05,168.177032
1.2160278e-05,163.853349
1.2853693e-05,159.372399
1.40081044e-05,152.664261
1.4777712e-05,148.635812
1.55473197e-05,144.910312
1.69867425e-05,138.634715
1.84261653e-05,133.109655
1.99840473e-05,127.816024
2.17788477e-05,122.436123
2.35736481e-05,117.682967
2.49178871e-05,114.464652
2.64098315e-05,111.184481
2.86477482e-05,106.753404
3.01396927e-05,104.077669
3.19999817e-05,101.007144
3.38602707e-05,98.1932723
3.57205597e-05,95.6021826
3.75808487e-05,93.2059489
3.99004224e-05,90.4561633
4.3379783e-05,86.7527403
4.56993568e-05,84.5224023
4.8305269e-05,82.2109388
5.26436452e-05,78.7505975
5.69820214e-05,75.6933773
6.20344622e-05,72.5454649
6.56407777e-05,70.524481
7.10502508e-05,67.7866103
7.73500833e-05,64.9675209
8.1846758e-05,63.1576439
8.63434328e-05,61.4910599
9.08401075e-05,59.9498068
9.64469614e-05,58.1811498
0.000102053815,56.5603279
0.000107660669,55.0678309
0.000113267523,53.6875731
0.000123754209,51.3625318
0.000130745333,49.9704514
0.000137736457,48.6857512
0.000149949174,46.6610189
0.000163024906,44.7506347
0.000176100639,43.0571852
0.000192404625,41.1925096
0.000203273949,40.0760655
0.000219577934,38.559509
0.000233130774,37.4219109
0.000253460033,35.8897884
0.000267012873,34.9670876
0.000282238735,34.0108247
0.000307587063,32.5792654
0.000324485948,31.7195686
0.000341384834,30.9245229
0.000372991383,29.5852697
0.000394062416,28.7834137
0.000415133448,28.0434098
0.000451942202,26.8771376
0.000491352058,25.776731
0.000530761913,24.8012814
0.000563521722,24.0695777
0.00059628153,23.399034
0.000645421242,22.4906334
0.000702648988,21.5552847
0.00074349683,20.9547832
0.000784344671,20.4018248
0.000825192513,19.89045
0.000876125234,19.303624
0.000927057955,18.7658483
0.000977990676,18.2706494
0.0010289234,17.8126903
0.00112418456,17.0412585
0.00121944573,16.3620859
0.00132254654,15.7113612
0.00144132664,15.0500306
0.00156010673,14.4657425
0.00169843715,13.8641205
0.00179717421,13.477874
0.00194527979,12.9546166
0.00205620539,12.6003235
0.00217931953,12.2392204
0.00236399073,11.7514168
0.00248710487,11.4568529
0.00264061453,11.118827
0.00279412419,10.8090547
0.00294763384,10.5238073
0.00319684824,10.1052524
0.00348396247,9.67987479
0.00367537196,9.42442125
0.00386678145,9.1881778
0.004224781,8.79022477
0.00458278056,8.43986361
0.00497024215,8.10417645
0.0052678326,7.8719063
0.00556542305,7.65852341
0.00601180873,7.3686667
0.00638287096,7.15123845
0.00693946431,6.85840333
0.00731052654,6.68204611
0.00772739435,6.49927316
0.00842140443,6.22565366
0.00888407781,6.06133522
0.0093467512,5.90937296
0.0102121047,5.65339059
0.010789007,5.50012387
0.0113659093,5.3586785
0.0123736936,5.13575334
0.0134526932,4.9254151
0.0145316929,4.73895926
0.0154286213,4.59909331
0.0163255498,4.47091667
0.0176709425,4.29727042
0.0192377769,4.11846949
0.0203561471,4.00367584
0.0214745172,3.89796916
0.0225928874,3.8002104
0.0239464437,3.69117829
0.0253,3.5910157
0.0274531157,3.44722056
0.0290402038,3.35162734
0.0307789696,3.25550444
0.0333871184,3.12565139
0.0362099082,3.00123308
0.03946198,2.87478208
0.0427140518,2.76305753
0.0451497331,2.68740712
0.047853048,2.61030013
0.0519080202,2.50613422
0.0562967018,2.40632609
0.0596674351,2.33726325
0.0630381684,2.27381383
0.0664089017,2.21525615
0.0701957334,2.15456574
0.0743986634,2.09270574
0.0807030584,2.00913553
0.0849059884,1.95866777
0.0901465752,1.90075034
0.0980074554,1.82274059
0.105868336,1.75358258
0.11566998,1.67742377
0.125471625,1.61036528
0.136079908,1.54610786
0.144227616,1.50164182
0.156449178,1.44156696
0.169676529,1.38400002
0.179835816,1.34416289
0.189995102,1.30756112
0.200154389,1.27377886
0.211567783,1.23876368
0.224235285,1.20307085
0.243236538,1.15484648
0.25590404,1.12572102
0.271699007,1.09229338
0.295391459,1.04726403
0.31908391,1.00733876
0.348625765,0.963365591
0.378167621,0.924640995
0.410140661,0.887528499
0.434697602,0.86184345
0.471533014,0.827137852
0.521538,0.786030712
0.545795766,0.768151734
0.594311299,0.735728189
0.656748527,0.699398893
0.694927988,0.679633107
0.73310745,0.661428716
0.771286911,0.644590355
0.818892458,0.62526412
0.890300779,0.599229882
0.961709099,0.576147104
1.05074734,0.55072603
1.11010617,0.535503977
1.19914442,0.514825684
1.27315828,0.499314629
1.38417908,0.478426134
1.49519988,0.45991352
1.58748695,0.446030869
1.67977402,0.433312965
1.77206109,0.421606835
1.86434815,0.410786304
1.97941988,0.398377083
2.15202746,0.381681241
2.26709919,0.371638249
2.39637587,0.361241631
2.61159836,0.345704911
2.82682084,0.332012485
3.07746736,0.317956898
3.34582589,0.304745693
3.61418442,0.293086046
3.93994436,0.280632759
4.12879174,0.274131432
4.4120628,0.265217799
4.64556168,0.258530676
4.92371207,0.251238442
5.20186246,0.244585699
5.48001285,0.238491095
5.79249936,0.232226472
6.31273332,0.222962133
6.65955595,0.217474743
7.00637859,0.212458637
7.65505254,0.204156002
8.3037265,0.197026019
9.00578392,0.190384404
9.54500016,0.185916613
10.3538245,0.180076168
11.110256,0.175402026
12.0373144,0.170534077
12.9643728,0.166457028
13.7574355,0.163498871
14.5520163,0.1609571
15.7438875,0.157826355
16.5384683,0.156134975
17.4584151,0.154522988
18.5037278,0.153093776
19.5490406,0.152047042
20.5943534,0.151344605
21.8844842,0.150907516
23.5716103,0.150984584
24.491262,0.151312239
25.4109137,0.151829929
26.993333,0.15314678
29.1110766,0.155719832
30.5934971,0.158060827
31.7123936,0.160121687
33.3465638,0.163592331
35.4643074,0.168930051
36.5761228,0.172129515
37.6879382,0.175616714
39.6997946,0.182703445
41.3772549,0.189438416
42.87641,0.196155075
43.9352818,0.201330196
45.5235895,0.209823225
47.1118972,0.219280419
48.7002049,0.229817471
50.2885126,0.24157197
51.7250562,0.253387989
52.9356921,0.264328146
54.5239998,0.280221991
56.1123075,0.298113525
57.7006152,0.318327564
59.2889229,0.341261165
59.8183588,0.349591472
60.8772306,0.367403494
61.4066665,0.376931673
62.4655383,0.397362457
63.3204963,0.415328615
64.1146502,0.433326334
64.9803588,0.454537357
65.7745127,0.47561339
66.5686665,0.49841027
66.9657434,0.510512822
67.7598973,0.536258374
68.5540511,0.564256756
69.348205,0.594778196
69.8776409,0.616679809
70.6717948,0.652124938
71.2012306,0.677656817
71.9953845,0.719146023
72.7895383,0.764936162
73.5836922,0.815645103
74.377846,0.872006472
75.1719999,0.934896746
75.9661537,1.00537004
76.2308717,1.03075949
76.7603076,1.08470323
77.0250255,1.1133764
77.5544614,1.17445503
78.0838974,1.24100746
78.6133332,1.31371169
79.118783,1.38958378
79.4074871,1.43605857
79.936923,1.52787656
80.4663589,1.62923077
80.7310768,1.6839044
81.1281538,1.77145335
81.4590512,1.84995777
81.8561281,1.95153883
82.1870256,2.04297635
82.5841025,2.16177482
82.9480897,2.28035959
83.3451666,2.4216107
83.7339711,2.57347545
84.1227756,2.74056784
84.5198525,2.92913442
84.9169294,3.13845858
85.1154679,3.25187454
85.3305512,3.38200981
85.5290897,3.50937779
85.7607179,3.66751745
85.9592564,3.81194476
86.1908846,3.99175678
86.389423,4.15644523
86.6210512,4.36209582
86.7865,4.5186867
86.9850384,4.71822703
87.1835769,4.93156407
87.3821153,5.16000426
87.5806538,5.40501265
87.7791923,5.66823653
87.9777307,5.95153342
88.2093589,6.31023439
88.4078974,6.64460886
88.6064359,7.00674077
88.8049743,7.39979871
88.9373333,7.68079161
89.0696923,7.97834219
89.2682307,8.45866046
89.4005897,8.80372809
89.5329487,9.17064427
89.6653077,9.56129743
89.7976666,9.97778466
89.9300256,10.42244
90.0292948,10.7759719
90.1285641,11.1480168
90.260923,11.6751698
90.3601923,12.0957455
90.4925513,12.6932047
90.5918205,13.1711489
90.7241795,13.852017
90.8565384,14.5876252
90.9888974,15.3840105
91.1212564,16.2480659
91.2536154,17.1876897
91.3859743,18.2119668
91.5183333,19.3313887
91.6506923,20.5581237
91.7830513,21.9063476
91.9154102,23.3926555
91.9815897,24.1935615
92.080859,25.4747961
92.1404205,26.2932955
92.2198359,27.4478019
92.2992513,28.6804776
92.3786666,29.9985396
92.458082,31.4100559
92.5374974,32.9240691
92.6169128,34.5507408
92.6963282,36.301521
92.7757436,38.1893497
92.855159,40.2288942
92.9345743,42.4368334
93.0139897,44.8321968
93.0934051,47.4367723
93.1463487,49.3015987
93.1992923,51.2787989
93.2787077,54.475664
93.3316513,56.7761344
93.3845949,59.2256014
93.4640102,63.2082438
93.5169538,66.0908225
93.5698974,69.1751531
93.6493128,74.2225623
93.7022564,77.90046
93.7552,81.8582683
93.8081436,86.1249826
93.8610872,90.7334294
93.9140308,95.7208853
93.9669743,101.129816
94.0199179,107.00876
94.0728615,113.413394
94.1258051,120.407818
94.1522769,124.148913
94.2052205,132.170562
94.2581641,140.990223
94.2846359,145.73248
94.3243436,153.303833
94.3508154,158.681299
94.3905231,167.28911
94.4169949,173.419036
94.4567026,183.258897
94.4831744,190.28647
94.522882,201.601625
94.5625897,213.943772
94.6022974,227.438984
94.6287692,237.1474
94.6684769,252.899372
94.7081846,270.24669
94.7478923,289.407515
94.7876,310.637633
94.8273077,334.238272
94.8670154,360.565801
94.8802513,370.018625
94.9067231,390.043815
94.919959,400.654665
94.9464308,423.17828
94.9729026,447.594357
94.9993744,474.11265
95.0126103,488.233345
95.039082,518.361738
95.0655538,551.251276
95.0920256,587.232609
95.1184974,626.684108
95.1449692,670.039591
95.171441,717.797308
95.1979128,770.530342
95.2243846,828.898564
95.2376205,860.429115
95.2574744,910.952238
95.2707103,946.953896
95.2839462,984.956675
95.297182,1025.09537
95.3170359,1089.62682
95.3302718,1135.75919
95.3501256,1210.05127
95.3633615,1263.24427
95.3832154,1349.02892
95.3964513,1410.52701
95.4163051,1509.80604
95.436159,1618.24918
95.4560128,1736.71176
95.4758667,1866.07415
95.4891026,1958.80534
95.5023385,2057.02145
95.5221923,2215.1326
95.5354282,2328.01815
95.5486641,2447.05788
95.5605764,2559.52117
95.5764595,2717.31504
95.5976369,2941.27171
95.6082256,3058.72278
95.6294031,3303.21756
95.7035241,4199.52136
95.7247015,4436.49774
95.7405846,4596.87541
95.7511733,4692.75324
95.7617621,4778.09197
95.7723508,4851.51211
95.7829395,4911.76387
95.7935282,4957.77698
95.8041169,4988.70614
95.82,5005.62198
95.8305887,4996.93062
95.8411774,4972.41019
95.8517662,4932.52128
95.8623549,4878.00044
95.8729436,4809.8268
95.8835323,4729.17955
95.894121,4637.38955
95.9047097,4535.88851
95.9205928,4368.6748
95.9417703,4125.50402
96.0000082,3416.33712
96.0317744,3045.72379
96.0529518,2814.67081
96.0741292,2598.75319
96.0847179,2496.74253
96.0979538,2374.8623
96.1178077,2203.65819
96.1376615,2045.98289
96.1508974,1948.05745
96.1707513,1811.36982
96.1839872,1726.67409
96.1972231,1646.81609
96.210459,1571.53299
96.2236949,1500.56574
96.2369308,1433.66206
96.2501667,1370.57846
96.2634026,1311.08165
96.2766385,1254.94945
96.2898744,1201.97123
96.3031103,1151.94808
96.3163462,1104.69275
96.3295821,1060.02939
96.342818,1017.79319
96.3626718,958.65534
96.3759077,921.83447
96.3891436,886.944183
96.4156154,822.479044
96.4420872,764.38647
96.4553231,737.488903
96.4817949,687.565568
96.4950308,664.386741
96.5215026,621.250333
96.5347385,601.168751
96.5612103,563.699359
96.5744462,546.210756
96.600918,513.498116
96.6141538,498.191808
96.6406256,469.493003
96.6538615,456.033041
96.6803333,430.738924
96.6935692,418.849172
96.720041,396.457819
96.7332769,385.910169
96.7597487,366.00592
96.7994564,338.847875
96.8259282,322.348379
96.8524,306.998184
96.8788718,292.695305
96.9185795,273.007886
96.9450513,260.944862
96.9715231,249.649146
96.9979949,239.058159
97.0244667,229.115457
97.0509385,219.770043
97.0774103,210.975753
97.1038821,202.690732
97.1303539,194.876962
97.1568256,187.499859
97.1832974,180.527909
97.2097692,173.932356
97.2494769,164.687891
97.3024205,153.452086
97.3553641,143.314949
97.4083077,134.139137
97.4612513,125.807924
97.4877231,121.927308
97.5406667,114.680613
97.5671385,111.294731
97.6068462,106.487577
97.6465539,101.982348
97.6994974,96.4029065
97.7259692,93.7817743
97.7789128,88.8475548
97.8053846,86.5239278
97.8848,80.0705068
97.9642154,74.3075392
98.017159,70.8017638
98.0965744,65.9872026
98.149518,63.0432347
98.2289333,58.9807654
98.2818769,56.4851935
98.3612923,53.0265996
98.4142359,50.8931476
98.4936513,47.9248793
98.5465949,46.0869974
98.5995385,44.3521082
98.6524821,42.7126878
98.7318974,40.4177401
98.784841,38.9883162
98.8907282,36.3464315
98.9966154,33.9625216
99.1025026,31.8041678
99.2083898,29.8438762
99.301041,28.2725822
99.3804564,27.0217975
99.4731077,25.6639807
99.5922308,24.0625458
99.6584103,23.2363687
99.7907692,21.7058749
99.8569487,20.9963198
99.9893077,19.6770251
100.055487,19.0631907
100.187846,17.9180518
100.254026,17.3835095
100.386385,16.383249
100.518744,15.4662798
100.584923,15.0361774
100.717282,14.2276967
100.849641,13.4822214
100.982,12.7933887
101.180538,11.8543228
101.312897,11.2841203
101.445256,10.7537564
101.577615,10.2596151
101.709974,9.79848069
101.842333,9.36748622
101.974692,8.96406879
102.107051,8.58593188
102.23941,8.23101276
102.371769,7.89745457
102.504128,7.58358215
102.636487,7.28788115
102.768846,7.00897985
102.901205,6.74563338
103.033564,6.49670989
103.165923,6.26117849
103.364462,5.93095649
103.62918,5.52941107
103.893897,5.16690565
104.026256,4.99873573
104.224795,4.76130393
104.423333,4.5402136
104.688051,4.26834548
104.82041,4.1413744
105.085128,3.90366751
105.217487,3.79232619
105.482205,3.58330792
105.614564,3.48514167
105.879282,3.30039124
106.011641,3.21340824
106.276359,3.04932337
106.408718,2.97189382
106.673436,2.82551553
107.070513,2.62517522
107.335231,2.50307159
107.732308,2.33508703
107.997026,2.23219419
108.394103,2.08998342
108.658821,2.00248991
109.055897,1.88106037
109.320615,1.8060534
109.585333,1.73537875
109.850051,1.66871088
110.114769,1.60575419
110.379487,1.54623979
110.908923,1.43657905
111.438359,1.33801191
111.967795,1.2490992
112.497231,1.16862723
113.026667,1.09556675
113.556103,1.02904034
114.085539,0.968296366
114.614974,0.912687934
114.879692,0.886631787
115.409128,0.837701833
115.938564,0.792644415
116.468,0.751064325
116.732718,0.731468378
117.526872,0.676993219
118.321026,0.628281916
119.11518,0.584555179
119.909333,0.54516068
120.703487,0.509549056
121.497641,0.477255038
122.291795,0.447882491
122.837285,0.429221667
123.631439,0.404034183
124.27718,0.38512335
125.071333,0.363600179
125.46841,0.353496478
126.262564,0.334490285
126.659641,0.325546388
127.453795,0.308683197
127.850872,0.30072987
128.645026,0.285702373
129.174462,0.27629027
130.233334,0.258786523
131.292205,0.242868188
132.351077,0.228351537
133.409949,0.215078573
134.468821,0.202912833
135.527693,0.191735972
136.586564,0.181444958
137.645436,0.17194976
138.704308,0.163171436
139.76318,0.155040537
141.351487,0.143925992
142.410359,0.137160653
143.469231,0.130856999
145.057539,0.122179831
146.645846,0.114332407
148.234154,0.107213705
149.822462,0.100737523
151.41077,0.0948299524
152.89241,0.0897755026
154.50797,0.0847123432
156.175693,0.0799240187
157.764,0.0757338428
159.66997,0.0711304079
161.046503,0.0680648541
162.528923,0.0649830986
163.587795,0.0629103553
165.732011,0.059011338
166.817354,0.057177534
168.988041,0.0537636326
171.211672,0.0505827642
172.323488,0.0491006573
174.547118,0.0463323654
176.770749,0.0438010021
179.206154,0.0412700458
181.449639,0.0391375522
184.209324,0.036746338
186.049113,0.035279708
188.696293,0.0333294745
191.118462,0.0316941436
192.737869,0.0306728175
195.470044,0.0290684108
197.291494,0.028074756
199.761503,0.0268154164
201.70718,0.0258890908
205.677949,0.024159595
209.357529,0.0227276769
213.182703,0.0213901358
216.121072,0.0204548995
219.655057,0.0194242158
223.784657,0.0183353927
227.014216,0.0175608677
230.826154,0.0167238422
234.901785,0.0159112972
237.758688,0.015387254
241.732534,0.0147143893
246.179796,0.0140308445
248.403426,0.0137139843
252.850688,0.0131253106
255.074319,0.0128517916
259.52158,0.0123425713
263.810011,0.0118950998
268.799944,0.0114225478
272.360401,0.0111139336
279.481314,0.0105600093
286.416924,0.0100917984
292.328358,0.00974092885
300.058122,0.00934040846
307.59436,0.00900548023
315.535898,0.00870416761
322.603868,0.00847523901
330.108622,0.00826810668
336.27655,0.00812292586
342.007693,0.00800659084
349.949232,0.007872639
360.53795,0.00773912377
366.20492,0.00768726383
375.501654,0.00762984966
382.761182,0.00760783871
390.020709,0.00760511014
397.280236,0.00762124604
404.75302,0.00765735387
412.43906,0.00771515407
420.579633,0.00779954432
429.174738,0.00791526232
441.857758,0.00813865409
447.727586,0.00826468285
458.628694,0.00854016935
463.682938,0.00868759023
471.416533,0.00893959467
475.818903,0.00909839332
483.785098,0.00941672043
492.170566,0.00979949
496.3633,0.0100112465
504.748768,0.0104804521
508.941502,0.0107402155
517.32697,0.0113168614
523.616071,0.0118057176
529.905172,0.0123501013
536.194273,0.0129578356
542.483374,0.0136382798
546.676108,0.014137775
550.868842,0.0146784475
557.157943,0.0155765722
563.447044,0.0165953571
565.543411,0.0169654311
569.736145,0.0177568334
573.928879,0.018623709
578.161116,0.0195852687
582.314347,0.020624754
585.458898,0.0214829558
588.603448,0.0224097176
591.747998,0.0234125431
594.892549,0.0245000053
596.464824,0.0250784922
599.609375,0.0263117968
603.278017,0.0278932748
605.374384,0.0288740672
607.470751,0.029916876
609.567118,0.0310270796
612.711669,0.0328320134
614.808035,0.0341383823
617.952586,0.0362722627
620.048953,0.0378243318
623.193503,0.040373035
625.289871,0.0422371465
628.434421,0.0453167314
630.530788,0.0475833896
631.578972,0.0487880395
633.675338,0.051353812
635.247614,0.0534272682
636.819889,0.0556415105
637.868072,0.0572023169
639.96444,0.0605465236
642.060806,0.0642202086
643.10899,0.0661944081
645.205357,0.0704493362
646.253541,0.0727444795
648.349907,0.0777111292
649.398091,0.0804013368
651.494458,0.0862490933
652.542641,0.0894312561
653.590825,0.0928040866
654.639009,0.0963832251
656.211284,0.102177063
657.259467,0.106351693
658.831743,0.11313776
659.879926,0.118048586
661.452201,0.126068581
662.500385,0.131900544
664.07266,0.141474654
665.644935,0.152179371
666.169027,0.156029973
667.21721,0.164200877
668.265394,0.173056518
668.789486,0.177765376
669.837669,0.187799896
670.361761,0.193149882
671.409944,0.204583084
671.934036,0.210696564
672.98222,0.223802027
674.030403,0.238208216
674.554495,0.245953721
675.602679,0.262655493
676.12677,0.271668822
677.174954,0.291182677
677.961091,0.307266811
678.747229,0.324753617
679.533367,0.343811452
680.319504,0.364634719
681.04013,0.385465503
681.826268,0.410334272
682.645161,0.438938164
683.480433,0.471366521
683.906257,0.489322768
684.332082,0.508341203
684.757906,0.528507384
685.200109,0.550765237
685.593177,0.571768834
686.019002,0.595926679
686.444827,0.621669126
686.870651,0.649137954
687.26372,0.676162418
687.7223,0.709905193
688.180881,0.746267619
688.639461,0.78552814
689.098041,0.828003174
689.556621,0.874053492
690.015202,0.92409188
690.539293,0.986773306
691.063385,1.05611035
691.535068,1.12500742
692.059159,1.20983201
692.295001,1.25118534
692.583251,1.30469024
692.792888,1.34580058
693.107343,1.41122737
693.31698,1.45754568
693.631435,1.53143953
693.841071,1.58388253
694.155526,1.66776721
694.469982,1.75852267
694.784437,1.85691862
694.994073,1.92719026
695.308528,2.04033996
695.622983,2.16377831
695.937438,2.29878778
696.251893,2.44685629
696.566349,2.60971786
696.880804,2.78940282
697.195259,2.98830052
697.509714,3.20923773
697.71935,3.37040867
697.928987,3.54401035
698.033805,3.63587392
698.243442,3.83062148
698.453079,4.04139763
698.610306,4.21107001
698.767534,4.39161465
698.977171,4.6508967
699.134398,4.86065567
699.344035,5.1630252
699.553671,5.49433484
699.763308,5.85836305
699.972945,6.25951879
700.182582,6.70297048
700.392218,7.19480642
700.601855,7.74223544
700.706673,8.03941743
700.811492,8.35383977
700.91631,8.68684236
701.073538,9.22444027
701.178356,9.61065052
701.335583,10.2363589
701.440402,10.687512
701.597629,11.4212678
701.702448,11.9524405
701.859675,12.8200031
701.964494,13.4507876
702.121721,14.4858351
702.226539,15.2420044
702.278949,15.6419177
702.383767,16.489126
702.436176,16.9380498
702.540994,17.8909989
702.593404,18.3969809
702.698222,19.4733335
