energy [eV],cross section [b]
1e-05,22378.9087
1.05887226e-05,21747.8843
1.14718064e-05,20894.0552
1.23548903e-05,20133.489
1.30822505e-05,19565.7783
1.38096108e-05,19043.5325
1.45369711e-05,18560.9901
1.52643314e-05,18113.3627
1.6162977e-05,17602.613
1.70616226e-05,17132.7664
1.79602683e-05,16698.6396
1.94140473e-05,16061.245
2.10794475e-05,15413.7157
2.27448478e-05,14838.6759
2.46717036e-05,14247.4375
2.67292873e-05,13688.0721
2.8786871e-05,13189.8053
3.04816191e-05,12817.883
3.21763672e-05,12475.7459
3.47184893e-05,12010.3089
3.66127846e-05,11695.4753
3.87066272e-05,11374.7335
4.28943125e-05,10805.2126
4.52346936e-05,10521.9671
4.78216132e-05,10233.4061
5.29954524e-05,9721.02644
5.7485023e-05,9333.68839
6.22791891e-05,8967.23089
6.70733553e-05,8640.80065
7.2996495e-05,8282.79627
7.89196347e-05,7965.89233
8.53077192e-05,7661.81573
9.01863686e-05,7451.6866
9.50650179e-05,7257.94757
0.000102382992,6993.73272
0.00010841051,6796.51395
0.000114438028,6615.089
0.000126493063,6291.95278
0.000137663461,6031.25313
0.000152557325,5729.2506
0.000160881093,5579.05221
0.000170081696,5426.03473
0.0001838826,5218.41583
0.000198766825,5019.2001
0.000215817691,4816.8157
0.000232868557,4637.08671
0.000252596284,4452.29366
0.000266640389,4333.43133
0.000287706546,4171.73224
0.000303404268,4062.35414
0.000320755605,3950.92278
0.000355458281,3753.05945
0.000374852643,3654.65321
0.000396290031,3554.39952
0.000439164806,3376.38343
0.000476369156,3241.80869
0.000516097641,3114.48691
0.000555826127,3001.07064
0.000604910234,2876.68225
0.000653994342,2766.57233
0.000706931372,2660.9175
0.000747359956,2587.90461
0.000787788541,2520.5858
0.000848431417,2428.77707
0.000898380489,2360.24669
0.000973304097,2267.51709
0.00107908347,2153.4232
0.00117165077,2066.53196
0.00129507383,1965.49994
0.00140943971,1883.98599
0.00156192754,1789.55333
0.00169424803,1718.16229
0.00183554582,1650.61632
0.0019768436,1590.44506
0.00209322485,1545.52909
0.00220960609,1504.20836
0.00238417796,1447.99329
0.00258615633,1390.19051
0.00272994408,1353.00843
0.00301751958,1286.77817
0.00328399186,1233.33947
0.00363928823,1171.42736
0.00383785352,1140.63271
0.00405733591,1109.25766
0.00438655949,1066.68272
0.00474162591,1025.82582
0.00514837803,984.313249
0.00555513015,947.442175
0.00585822678,922.498243
0.00619325197,897.083116
0.00669578975,862.593729
0.00723777491,829.493837
0.00765169485,806.616332
0.00847953473,765.984732
0.00894219147,745.772012
0.00945358502,725.176169
0.0104763721,688.594945
0.0110479794,670.396093
0.0116798006,651.851502
0.0126275322,626.682256
0.0136496574,602.522863
0.0148205694,577.969222
0.0159914815,556.15471
0.0173462182,533.71511
0.0183106509,519.275336
0.0197572999,499.622967
0.0214310623,479.405314
0.0226226083,466.394079
0.0238141543,454.366722
0.0251528501,441.881239
0.0266985671,428.642828
0.0280971342,417.612701
0.0308942683,397.828902
0.0336224912,380.945443
0.0354413065,370.781441
0.0372601218,361.364898
0.0404166558,346.544751
0.0437873453,332.507297
0.0471580348,319.988262
0.0513224847,306.240304
0.0540987846,297.960699
0.0582632345,286.655858
0.0616933226,278.206578
0.0668384548,266.757498
0.0702685429,259.823732
0.074102505,252.642052
0.0783403412,245.315878
0.0825781775,238.551806
0.0868160137,232.280667
0.0915528318,225.783814
0.099406532,216.034287
0.109878132,204.666429
0.118850307,196.121308
0.13011892,186.639431
0.139749276,179.440433
0.151737424,171.430613
0.163725573,164.293827
0.172658697,159.45261
0.182532848,154.50832
0.197344073,147.778608
0.207218223,143.686096
0.219417628,139.003967
0.231617032,134.684349
0.243816437,130.681913
0.263551956,124.784715
0.286160302,118.766764
0.301232532,115.122916
0.316304763,111.732798
0.339512,106.94431
0.365151532,102.173684
0.390791063,97.862339
0.413797815,94.3265821
0.436804567,91.0630744
0.471314694,86.6062731
0.503565553,82.8469217
0.524313035,80.6072643
0.565808,76.4903032
0.588839321,74.3890361
0.614075562,72.2192959
0.64919383,69.4066534
0.701871233,65.5793808
0.76454675,61.5392684
0.82171361,58.2573351
0.880932831,55.1958561
0.937506831,52.5444217
0.99143561,50.2310634
1.0450413,48.1123565
1.0983239,46.1639167
1.169264,43.7835069
1.244696,41.4853977
1.282412,40.415992
1.33756654,38.9380542
1.38988215,37.622582
1.45071454,36.1888478
1.508708,34.9092663
1.58414,33.3597507
1.64568804,32.1824615
1.71718415,30.9034821
1.77272,29.970113
1.885868,28.2144272
1.999016,26.6323666
2.12156217,25.0889997
2.263028,23.4982944
2.376176,22.3551554
2.52704,20.9879932
2.602472,20.3654543
2.753336,19.2314213
2.828768,18.7164716
2.979632,17.7843771
3.055064,17.3656536
3.130496,16.978009
3.2384228,16.4778176
3.319076,16.1470687
3.394508,15.8728388
3.46994,15.6350114
3.545372,15.4371377
3.620804,15.2842928
3.696236,15.1836792
3.771668,15.1455555
3.809384,15.1543129
3.884816,15.2396641
3.94139,15.3762951
3.997964,15.5925058
4.03568,15.7915464
4.092254,16.1946336
4.12997,16.5507158
4.167686,16.9957501
4.205402,17.5521348
4.233689,18.0603253
4.252547,18.4513538
4.2695192,18.8447709
4.299692,19.658476
4.3147784,20.1296669
4.3298648,20.651166
4.3449512,21.2297152
4.3600376,21.8732378
4.375124,22.5910963
4.3902104,23.3944167
4.4052968,24.296502
4.4203832,25.3133628
4.4354696,26.4644044
4.4430128,27.097451
4.4580992,28.4958554
4.4731856,30.0984417
4.4807288,30.9885959
4.488272,31.9457563
4.4995868,33.5221079
4.5109016,35.2911329
4.5184448,36.5930823
4.525988,38.0058988
4.5373028,40.3613335
4.544846,42.1111589
4.5523892,44.0253117
4.5561608,45.0504153
4.563704,47.2512779
4.5712472,49.6752929
4.5787904,52.3531827
4.5863336,55.321085
4.5938768,58.6217236
4.60142,62.30588
4.6089632,66.434257
4.6127348,68.6872823
4.6165064,71.0798538
4.620278,73.6235175
4.6240496,76.3310158
4.6278212,79.2164367
4.6315928,82.2953831
4.6353644,85.5851681
4.639136,89.1050389
4.6429076,92.8764342
4.6466792,96.9232814
4.6504508,101.27234
4.6542224,105.953601
4.657994,111.000744
4.6617656,116.451679
4.6655372,122.349167
4.667423,125.480235
4.6711946,132.140168
4.6749662,139.379876
4.6787378,147.265698
4.6825094,155.87322
4.6843952,160.474125
4.6881668,170.329831
4.6919384,181.146944
4.6938242,186.953255
4.6975958,199.445433
4.6994816,206.168626
4.7032532,220.672967
4.705139,228.500233
4.7089106,245.433216
4.7117393,259.364868
4.714568,274.472319
4.7173967,290.87629
4.7202254,308.710472
4.7230541,328.122498
4.7258828,349.274749
4.7287115,372.344845
4.7305973,388.88499
4.7324831,406.42365
4.7353118,434.743074
4.7371976,455.059963
4.7390834,476.605652
4.7419121,511.377358
4.7437979,536.291581
4.7456837,562.666459
4.7475695,590.55945
4.7503982,635.349056
4.75303832,680.428357
4.75530128,721.598823
4.75831856,780.026568
4.76133584,842.16914
4.76435312,907.370133
4.77265064,1092.00104
4.77566792,1155.12214
4.77793088,1198.43327
4.77943952,1224.66947
4.78094816,1248.34434
4.7824568,1269.08565
4.78396544,1286.54824
4.78547408,1300.42722
4.78698272,1310.47057
4.78849136,1316.49013
4.78992457,1318.37541
4.79226296,1313.36776
4.7937716,1304.90741
4.79528024,1292.51852
4.79678888,1276.42588
4.79829752,1256.91254
4.79980616,1234.30776
4.8013148,1208.974
4.80357776,1166.69531
4.80659504,1104.37119
4.81564688,902.522238
4.8201728,805.581553
4.82319008,745.151981
4.82469872,716.405842
4.827716,662.012031
4.8296018,630.143768
4.8314876,599.902584
4.8343163,557.520621
4.8362021,531.183404
4.8380879,506.312849
4.8409166,471.615609
4.8437453,439.844712
4.846574,410.767891
4.8494027,384.157689
4.8512885,367.680114
4.8541172,344.704859
4.856003,330.464983
4.8578888,317.023658
4.8597746,304.330325
4.8626033,286.589644
4.8644891,275.564764
4.8663749,265.134178
4.8682607,255.26017
4.8710894,241.416387
4.8729752,232.784952
4.8767468,216.824817
4.8805184,202.427445
4.88429,189.408076
4.8880616,177.606356
4.8918332,166.882993
4.8956048,157.116832
4.8993764,148.202324
4.903148,140.047344
4.9050338,136.229093
4.9088054,129.065504
4.912577,122.478251
4.9163486,116.409157
4.9182344,113.552653
4.922006,108.166563
4.9257776,103.18142
4.931435,96.374064
4.9370924,90.2747003
4.94323586,84.3455593
4.9484072,79.8436287
4.9540646,75.3671277
4.959722,71.3044676
4.9653794,67.607105
4.9710368,64.2333014
4.9766942,61.1470288
4.9823516,58.3170711
4.9861232,56.5592773
4.9936664,53.3209856
4.997438,51.8279319
5.0049812,49.0664382
5.0087528,47.7882947
5.016296,45.4157811
5.0200676,44.3138238
5.0276108,42.2616573
5.035154,40.3921956
5.0389256,39.5194086
5.0464688,37.8861798
5.0577836,35.6871852
5.0653268,34.3681096
5.0766416,32.5804948
5.0841848,31.5015628
5.091728,30.5028262
5.1030428,29.1389585
5.110586,28.309821
5.1219008,27.1723896
5.129444,26.4779389
5.1445304,25.2236647
5.1596168,24.1257812
5.16716,23.6280831
5.1822464,22.7227966
5.1897896,22.3109443
5.204876,21.5595913
5.2275056,20.590448
5.2501352,19.7806832
5.2727648,19.1036917
5.2916228,18.6259578
5.318024,18.0702343
5.336882,17.7440223
5.365169,17.3512088
5.393456,17.0612232
5.421743,16.8633389
5.45003,16.7502668
5.478317,16.7175821
5.506604,16.7633709
5.53191795,16.8711731
5.55781391,17.0487388
5.58628091,17.3268305
5.60525891,17.5639043
5.62423692,17.8456582
5.64321492,18.1757141
5.66219292,18.5584792
5.68117092,18.9992744
5.70014893,19.5044971
5.71912693,20.0818273
5.73620713,20.6706636
5.75518513,21.4119569
5.77416314,22.2576376
5.79693674,23.4329496
5.81211914,24.3294871
5.82730154,25.33067
5.83489274,25.8750109
5.85007515,27.0616813
5.86525755,28.3953605
5.88043995,29.8991317
5.89562235,31.6009071
5.90321355,32.5363893
5.91460035,34.0590592
5.92219156,35.1619965
5.92978276,36.3425846
5.93737396,37.607986
5.94876076,39.6829002
5.95635196,41.1975505
5.96394316,42.8296289
5.97153436,44.591236
5.98292116,47.5069793
5.99051236,49.6564862
6.00189917,53.2366952
6.00949037,55.8935687
6.01328597,57.3127058
6.02087717,60.3509848
6.02846837,63.6841666
6.03226397,65.4731999
6.03985517,69.3232811
6.04744637,73.5776148
6.05124197,75.8739816
6.05883317,80.8458321
6.06262877,83.539815
6.07021997,89.3966593
6.07591338,94.2476206
6.08160678,99.5439977
6.08730018,105.340911
6.09299358,111.702117
6.09868698,118.701639
6.10438038,126.425778
6.11007378,134.975558
6.11576718,144.469763
6.12146058,155.048689
6.12525618,162.784895
6.12905178,171.133484
6.13094958,175.557166
6.13474518,184.9472
6.13854078,195.125993
6.14233638,206.18088
6.14423418,212.067341
6.14802979,224.626537
6.15182539,238.33614
6.15562099,253.333779
6.15941659,269.776931
6.16321219,287.846134
6.16700779,307.748715
6.17080339,329.723119
6.17459899,354.043872
6.17649679,367.181158
6.17934349,388.230616
6.18124129,403.229169
6.18313909,419.060685
6.18503689,435.78122
6.18788359,462.661416
6.18978139,481.876418
6.19262809,512.818542
6.19452589,534.971655
6.19737259,570.695812
6.19927039,596.304435
6.20211709,637.642847
6.20496379,682.793577
6.20781049,732.112174
6.21065719,785.964593
6.21255499,824.565469
6.21445279,865.447669
6.21729949,931.257496
6.21919729,978.241007
6.22109509,1027.78421
6.22432136,1117.95672
6.2258396,1162.9651
6.22811696,1233.45931
6.23039432,1307.30207
6.23267168,1384.08588
6.24329936,1757.14597
6.24633584,1855.81341
6.2486132,1922.60335
6.25013144,1962.54032
6.25164968,1998.09454
6.25316792,2028.69087
6.25468616,2053.80783
6.2562044,2072.99838
6.25772264,2085.90888
6.26007591,2092.97625
6.26151824,2089.40432
6.26303648,2079.21403
6.26455472,2062.61696
6.26607296,2039.91841
6.2675912,2011.52505
6.26910944,1977.92722
6.27062768,1939.67885
6.27214592,1897.37624
6.27442328,1827.67344
6.27745976,1726.28705
6.28581008,1430.52998
6.28884656,1326.28318
6.29188304,1227.00284
6.29491952,1133.72061
6.297956,1046.96052
6.30080271,971.684017
6.30364941,902.188743
6.30649611,838.255144
6.30934281,779.580429
6.31124061,743.214426
6.31313841,708.922291
6.31503621,676.594062
6.31693401,646.120599
6.31883181,617.39501
6.32072961,590.313692
6.32262741,564.777045
6.32452521,540.689945
6.32642301,517.962016
6.32832081,496.507762
6.33021861,476.246577
6.33211641,457.102682
6.33401421,439.004995
6.33686091,413.675706
6.33875871,397.911774
6.34065651,382.979577
6.34350321,362.027219
6.34729881,336.542264
6.34919661,324.754166
6.35299221,302.896074
6.35489001,292.75754
6.35868561,273.907321
6.36058341,265.140163
6.36437901,248.796808
6.36627681,241.17558
6.37007241,226.932415
6.37197021,220.273782
6.37576582,207.799428
6.37766362,201.953667
6.38145922,190.976882
6.38525482,180.871973
6.38715262,176.11883
6.39094822,167.161646
6.39664162,154.967205
6.40043722,147.574518
6.40613062,137.456924
6.40992622,131.291927
6.41561962,122.813978
6.41941522,117.624002
6.42321082,112.767481
6.42700642,108.216948
6.43080202,103.947653
6.43459762,99.937255
6.43839322,96.1655512
6.44218882,92.6142397
6.44598442,89.2667128
6.44978002,86.1078754
6.45737123,80.3025098
6.46496243,75.1020129
6.47255363,70.4259995
6.48014483,66.2068679
6.48394043,64.2504168
6.49153163,60.6121833
6.49912283,57.3035587
6.50671403,54.2861513
6.51050963,52.876155
6.51810083,50.2351306
6.52569204,47.811045
6.53707884,44.5321343
6.54846564,41.6245263
6.55985244,39.0343537
6.56744364,37.4616285
6.57503484,35.9987912
6.58642164,33.9890199
6.59780844,32.175054
6.60919525,30.5322524
6.62058205,29.0397182
6.63196885,27.6796386
6.64715125,26.0461828
6.65474245,25.2979436
6.66992485,23.9220263
6.67751605,23.2886514
6.69269846,22.1186476
6.70028966,21.5776759
6.71547206,20.5742569
6.72306326,20.1084532
6.73824566,19.2412407
6.75342806,18.4512976
6.76481487,17.9040872
6.78379287,17.0685117
6.80087307,16.3888763
6.81036207,16.0377345
6.82934008,15.3861925
6.84831808,14.7952096
6.86729608,14.2574093
6.88627408,13.7665089
6.91474109,13.1065417
6.93371909,12.7109778
6.95269709,12.3465253
6.97167509,12.0099536
7.0001421,11.5513056
7.0380981,11.0138598
7.05707611,10.7725079
7.09503211,10.3365735
7.13298811,9.95434736
7.15196612,9.78063984
7.18992212,9.46352579
7.24685613,9.05262738
7.30379014,8.70540722
7.36072414,8.40973167
7.41765815,8.15640259
7.47459216,7.93835774
7.54551902,7.70790066
7.58846017,7.5873862
7.66437218,7.40435629
7.74028419,7.25460934
7.8161962,7.13364571
7.93006422,6.99927822
8.00597623,6.93798459
8.08188824,6.89778463
8.15780025,6.87804044
8.26185613,6.88411092
8.35067121,6.92052013
8.42789979,6.97703875
8.50512837,7.05865603
8.58235695,7.1680021
8.65958553,7.30857962
8.73681411,7.48497437
8.81404269,7.70315331
8.89127127,7.97088624
8.92988556,8.12639945
8.96849985,8.2983469
9.02642129,8.59107125
9.06503557,8.81255734
9.10364987,9.05807982
9.1615713,9.47818424
9.21949273,9.97181578
9.25810703,10.349516
9.27741417,10.5550661
9.31602846,11.0037806
9.33852435,11.2908004
9.37394989,11.7861569
9.39325704,12.0809204
9.43187133,12.7302352
9.45117847,13.0883082
9.47048562,13.4713419
9.48979277,13.8816434
9.50909991,14.3217955
9.53806063,15.0444345
9.56702135,15.852229
9.59598206,16.7588641
9.62494278,17.7809105
9.6539035,18.9385866
9.68286421,20.2567652
9.69251779,20.7369569
9.71182493,21.766321
9.72147851,22.3184544
9.74078565,23.5059543
9.75043922,24.1450769
9.76974637,25.5246962
9.78326137,26.5793435
9.79484566,27.5481737
9.80642994,28.5825523
9.82187566,30.0742234
9.83345995,31.2862712
9.84890566,33.0416869
9.86435138,34.9761761
9.87979709,37.1149118
9.89524281,39.4876468
9.91068853,42.1297484
9.92227281,44.3132361
9.92999567,45.8764039
9.93771853,47.5336212
9.94544139,49.2925717
9.95316424,51.1617379
9.9608871,53.150503
9.96860996,55.2692668
9.97633282,57.5295812
9.98405568,59.9443054
9.99177854,62.5277869
9.99950139,65.2960725
10.0072243,68.2671535
10.0149471,71.461255
10.02267,74.901174
10.0342543,80.5792602
10.0419771,84.7541594
10.0497,89.2814173
10.0593535,95.498327
10.0690071,102.422189
10.07673,108.543872
10.0805914,111.821179
10.0883143,118.855286
10.0960371,126.599772
10.0998985,130.768395
10.1076214,139.767458
10.1114828,144.629152
10.1192057,155.165641
10.1249978,163.859965
10.13079,173.320755
10.1365821,183.639461
10.1423743,194.921352
10.1481664,207.288034
10.1539586,220.880533
10.1597507,235.863036
10.1655428,252.427491
10.171335,270.799266
10.1751964,284.180524
10.1790578,298.572623
10.18485,322.281529
10.1887114,339.6729
10.1925728,358.489724
10.1964343,378.886469
10.2002957,401.038175
10.2041571,425.143628
10.2080186,451.429092
10.21188,480.152665
10.2157414,511.609387
10.2196028,546.137195
10.2234643,584.123879
10.2273257,626.015148
10.2292564,648.582387
10.2331178,697.316172
10.2350486,723.641056
10.2379446,765.821318
10.2398753,795.876954
10.2427714,844.125926
10.2447021,878.569108
10.2475982,933.961245
10.2504943,994.236033
10.2533903,1059.89732
10.2562864,1131.49745
10.2591825,1209.63785
10.2620786,1294.9673
10.2649746,1388.17675
10.2678707,1489.98905
10.2698014,1563.00741
10.2717321,1640.39361
10.2736629,1722.3566
10.2755936,1809.09122
10.2775243,1900.76984
10.279455,1997.53199
10.2829303,2184.77593
10.2844749,2273.39793
10.287564,2460.3178
10.2891086,2558.35215
10.2921977,2762.44678
10.3030097,3511.01543
10.3060989,3709.10208
10.3084157,3843.23721
10.3099603,3923.47067
10.3115049,3994.92572
10.3130494,4056.44823
10.314594,4106.99146
10.3161386,4145.65773
10.3176831,4171.73649
10.32,4186.2432
10.3215446,4179.2342
10.3230891,4158.99642
10.3246337,4125.90936
10.3261783,4080.58357
10.3277229,4023.833
10.3292674,3956.63958
10.330812,3880.11287
10.3323566,3795.44766
10.3346734,3655.90135
10.3377626,3452.86093
10.3462577,2860.3125
10.3508914,2550.49876
10.3539806,2357.32023
10.3570697,2176.78156
10.360545,1989.56603
10.3634411,1846.40262
10.3663371,1714.55096
10.3682679,1632.66361
10.3711639,1518.36352
10.3730946,1447.54079
10.3750254,1380.7644
10.3769561,1317.81459
10.3788868,1258.47478
10.3808175,1202.53397
10.3827482,1149.78852
10.3846789,1100.04328
10.3866097,1053.11241
10.3885404,1008.8197
10.3904711,966.998743
10.3924018,927.492891
10.3943325,890.155023
10.3962632,854.847267
10.3991593,805.412235
10.40109,774.633773
10.4030207,745.469966
10.4068822,691.587821
10.4107436,643.03507
10.4126743,620.555607
10.4165357,578.834431
10.4184664,559.464679
10.4223279,523.418724
10.4242586,506.638795
10.42812,475.331268
10.4300507,460.719362
10.4339122,433.388882
10.4358429,420.601498
10.4397043,396.626704
10.441635,385.38287
10.4454964,364.254312
10.4493579,344.785281
10.4512886,335.621025
10.45515,318.339663
10.4609422,294.78744
10.4648036,280.494596
10.468665,267.2087
10.4725264,254.839502
10.4783186,237.830551
10.48218,227.41873
10.4860414,217.676381
10.4899029,208.548381
10.4937643,199.985063
10.4976257,191.941592
10.5014872,184.377421
10.5053486,177.255817
10.50921,170.543447
10.5130714,164.210013
10.5169329,158.227929
10.5207943,152.572043
10.5285172,142.14894
10.53624,132.779334
10.5439629,124.327507
10.5478243,120.409189
10.5555472,113.124372
10.56327,106.501795
10.5709929,100.464365
10.5748543,97.6439962
10.5806465,93.6403551
10.5864386,89.8888951
10.5941615,85.2440405
10.5980229,83.0624247
10.6057457,78.9564849
10.6096072,77.023358
10.6211915,71.6561871
10.6327757,66.8657314
10.64436,62.5730128
10.6559443,58.7120704
10.6636672,56.3502427
10.6752515,53.0900708
10.6868358,50.1321864
10.69842,47.4407967
10.7061429,45.7792652
10.7177272,43.4660462
10.7293115,41.3467248
10.7447572,38.7871513
10.7602029,36.4938782
10.7679258,35.4359401
10.7833715,33.478301
10.7988172,31.7096094
10.8181243,29.7298679
10.8335701,28.3076122
10.8528772,26.7052665
10.8702536,25.4094672
10.8895608,24.1116578
10.9088679,22.9449973
10.9185215,22.4057325
10.9378286,21.4064807
10.9571358,20.5026722
10.9860965,19.3028266
11.0150572,18.2637751
11.0343644,17.6482623
11.0536715,17.0873939
11.0826322,16.3373366
11.1019394,15.8917011
11.1212465,15.4851552
11.1502072,14.9415565
11.1888215,14.3260815
11.2274358,13.8192189
11.2660501,13.406835
11.3046644,13.0779162
11.3432787,12.8239428
11.381893,12.6384298
11.4205073,12.5165938
11.4591216,12.4551137
11.4977358,12.4519668
11.545,12.5263968
11.5897142,12.6768939
11.6290571,12.8759174
11.6683999,13.1407192
11.7077428,13.4760725
11.7274142,13.6721408
11.7667571,14.1259479
11.7864285,14.3860424
11.8257714,14.979674
11.8454428,15.3165777
11.8749499,15.8776027
11.9044571,16.5124945
11.9241285,16.9813393
11.9536357,17.761016
11.9831428,18.6437819
12.0126499,19.6448636
