energy [eV],cross section [b]
1e-05,278.017146
1.09464803e-05,265.726123
1.18929606e-05,254.933221
1.29190697e-05,244.599585
1.37093144e-05,237.445205
1.4499559e-05,230.883984
1.56849259e-05,221.98819
1.66746241e-05,215.299488
1.76643223e-05,209.181104
1.86540206e-05,203.55634
1.96437188e-05,198.362202
2.1502958e-05,189.592659
2.27424509e-05,184.353711
2.39819437e-05,179.526359
2.61540244e-05,171.909933
2.84825259e-05,164.733068
3.08110274e-05,158.385987
3.27551627e-05,153.613647
3.56713657e-05,147.200597
3.85875687e-05,141.529016
4.10223936e-05,137.264583
4.34572185e-05,133.363758
4.58920434e-05,129.777645
4.83268682e-05,126.46608
5.13762301e-05,122.655496
5.4425592e-05,119.169823
5.74749538e-05,115.965366
6.05243157e-05,113.006239
6.43433205e-05,109.601201
7.00718277e-05,105.025521
7.58003348e-05,100.978875
8.29746871e-05,96.5145258
9.01490394e-05,92.5943192
9.79269812e-05,88.8409231
0.000103917062,86.2422973
0.000112902183,82.7392971
0.000122643236,79.3853535
0.000130145182,77.0632838
0.000137647128,74.9337309
0.000145149073,72.9714832
0.000153597745,70.9360797
0.000162993142,68.8611314
0.000172388539,66.958211
0.000181783936,65.20479
0.000198248381,62.4382978
0.0002158985,59.8314593
0.000233548619,57.5260142
0.000255653536,54.9825897
0.000277758452,52.7491674
0.00030172309,50.610774
0.000320179144,49.130275
0.000338635198,47.7725174
0.000366319279,45.931643
0.000389433544,44.5474925
0.000412547809,43.2813574
0.000435662075,42.1173669
0.00045877634,41.0424859
0.000502198616,39.227695
0.0005311468,38.143527
0.000560094984,37.1445311
0.00061082363,35.5683387
0.00066520546,34.083098
0.00071958729,32.7695664
0.000764992303,31.7819195
0.000833099821,30.4547098
0.00090120734,29.2809361
0.000958072338,28.3983713
0.00101493734,27.5910505
0.00110023484,26.4995231
0.00116427605,25.7600941
0.00123549347,25.0062907
0.0013067109,24.3149748
0.00137792832,23.6779634
0.0014581332,23.0171947
0.00154732553,22.3435786
0.00168111402,21.4355127
0.00182615836,20.5660646
0.00199371436,19.682263
0.00216127037,18.9033182
0.00235701988,18.1006734
0.00249691739,17.5858217
0.00270676365,16.8897099
0.00295191931,16.1724124
0.00312712621,15.7123027
0.00330233311,15.2892999
0.00347754002,14.8986692
0.00369696822,14.449158
0.00391639643,14.0379581
0.00413582463,13.6599176
0.00435525283,13.3108055
0.00476746893,12.7213465
0.00517968503,12.2036957
0.00562658151,11.7080333
0.00614283878,11.2041585
0.00665909605,10.7600371
0.0072622204,10.3023721
0.007693259,10.0087873
0.00833981689,9.61181692
0.00882525142,9.34287525
0.00936508189,9.06868384
0.0101748276,8.69902475
0.0107146581,8.47619697
0.0113907389,8.21976411
0.0120668198,7.9851685
0.0127429006,7.76947432
0.0138423415,7.45301884
0.0151124216,7.13128346
0.0163825018,6.84766754
0.0178662896,6.55536512
0.0194569313,6.27986225
0.0205173591,6.11423762
0.0221106797,5.8881087
0.0242368932,5.62174025
0.0258299349,5.44405592
0.0280231429,5.22461732
0.029686416,5.07463371
0.0313496892,4.93671624
0.0330129623,4.80932643
0.0361375741,4.59417373
0.0382206487,4.46559325
0.0403037232,4.34708051
0.0439540921,4.16002351
0.0478673395,3.98367468
0.0517805868,3.82763788
0.0566815173,3.65540299
0.0599488043,3.55245996
0.0648497348,3.41282499
0.0689416678,3.30778331
0.0750795674,3.16655566
0.0812174669,3.04158286
0.0863421823,2.94756853
0.0914668978,2.86153304
0.0965916132,2.78240637
0.101716329,2.70930947
0.108134495,2.62516379
0.117761745,2.51203174
0.127388995,2.41192547
0.139446112,2.30142882
0.15150323,2.20435409
0.164574731,2.11137453
0.174641578,2.04698427
0.189741849,1.96016937
0.206112528,1.87704053
0.218720195,1.81948884
0.231327861,1.76671478
0.25023936,1.69518112
0.266029134,1.64141708
0.281818909,1.5922607
0.297608684,1.54709596
0.313398459,1.50541646
0.343061005,1.4351229
0.372723551,1.37349843
0.404881654,1.31461072
0.442030871,1.25489705
0.479180089,1.20241853
0.52258015,1.14852293
0.55359714,1.1140648
0.600122624,1.06763861
0.635053876,1.03630863
0.67389939,1.00448244
0.732167662,0.961781836
0.771013177,0.93616991
0.819663095,0.906827183
0.868313013,0.880117825
0.916962931,0.855683887
0.9960773,0.820069938
1.08747065,0.784177329
1.14839955,0.762831785
1.20932846,0.743238458
1.32378901,0.710435704
1.43824956,0.68194433
1.56233987,0.654966681
1.6579064,0.636476137
1.75347293,0.619662927
1.89682273,0.597103267
2.10470568,0.56900106
2.2243927,0.554838302
2.37557081,0.538683282
2.52546621,0.524297458
2.6753616,0.511296797
2.825257,0.49948833
2.97515239,0.488714525
3.2775762,0.469619868
3.58,0.453405187
3.96235261,0.436127305
4.31560612,0.422691823
4.66650449,0.411264822
5.10817994,0.399076377
5.54985539,0.388871264
5.98122927,0.380465486
6.392,0.373657863
6.85568886,0.367160088
7.31937773,0.361739621
7.95266,0.355815629
8.5597051,0.35150616
9.16675019,0.348350226
10.2585,0.345163177
10.95447,0.344598989
11.4803897,0.344860685
11.9657923,0.345601292
12.9365974,0.348463514
13.636415,0.351643011
14.3779798,0.356030323
14.8419848,0.359316497
15.7699949,0.367181634
16.937,0.379678523
17.7394297,0.390121639
18.3299497,0.398872483
18.9760366,0.40958305
19.58731,0.420916705
20.16377,0.432786713
21.0144,0.452666661
21.40808,0.462936871
22.1392,0.484058922
22.7016,0.502350017
23.29212,0.523755428
23.8264,0.545338516
24.1076,0.557645995
24.67,0.584466487
25.2324,0.61462063
25.7948,0.648671032
26.3572,0.68731021
26.6384,0.70861153
26.9196,0.731398215
27.2008,0.755812303
27.482,0.782013673
27.7632,0.810182801
28.1235743,0.849489863
28.4662,0.890625102
28.7474,0.927484626
29.0286,0.967483195
29.3098,1.01099363
29.591,1.05844658
29.8722,1.11034162
30.2237,1.18235337
30.54005,1.25500197
30.75095,1.30816661
30.96185,1.36559711
31.17275,1.42777009
31.4891,1.53113707
31.7,1.60773528
31.9109,1.69137531
32.1218,1.78296083
32.2624,1.84894556
32.403,1.91928223
32.6139,2.03382694
32.7545,2.11688136
32.8951,2.20589336
33.106,2.3518944
33.2466,2.458553
33.3872,2.57359318
33.5981,2.76389729
33.7387,2.90416494
33.8793,3.05661343
34.0199,3.22270899
34.1605,3.40414595
34.3011,3.60289077
34.4417,3.82123627
34.512,3.93858126
34.61745,4.12586838
34.7229,4.32795301
34.82835,4.54644753
34.9338,4.78319057
35.03925,5.04028623
35.1447,5.32015147
35.2589375,5.65227681
35.3680952,6.0014599
35.4768344,6.38448739
35.5895672,6.82392586
35.7027062,7.31476303
35.759825,7.58395251
35.8169438,7.86899646
35.8740625,8.17117028
35.935575,8.51736169
35.9970875,8.88700198
36.0586,9.28226623
36.1201125,9.70558799
36.181625,10.1596971
36.23435,10.5757547
36.287075,11.0188418
36.3398,11.4913594
36.392525,11.9959811
36.44525,12.5356918
36.5067625,13.214181
36.5594875,13.8419231
36.621,14.6342083
36.6825125,15.4984819
36.744025,16.4437598
36.79675,17.3263646
36.86705,18.6209728
36.919775,19.6918468
36.954925,20.4590427
36.990075,21.2729056
37.025225,22.1373053
37.060375,23.0565213
37.095525,24.0352959
37.130675,25.0788958
37.165825,26.1931828
37.200975,27.3846968
37.2273375,28.3333802
37.2624875,29.6781695
37.28885,30.7515627
37.324,32.2771196
37.35915,33.9207266
37.3943,35.6948958
37.42945,37.6138416
37.4646,39.6937659
37.49975,41.9532012
37.5436875,45.0626469
37.5788375,47.8087758
37.5964125,49.2778739
37.622775,51.6130327
37.657925,54.9963396
37.6755,56.8152028
37.7018625,59.7188694
37.7194375,61.7810594
37.7458,65.0820631
37.76689,67.9185174
37.784465,70.4272661
37.805555,73.6268106
37.82313,76.463654
37.84422,80.0909391
37.86531,83.9839978
37.8864,88.1694084
37.90749,92.6771494
37.92858,97.5411338
37.9567,104.647866
37.97779,110.502071
37.99185,114.682908
38.00591,119.106209
38.027,126.23801
38.04106,131.355134
38.05512,136.790325
38.07621,145.598964
38.09027,151.953121
38.10433,158.732705
38.11839,165.976411
38.13245,173.727416
38.14651,182.034011
38.16057,190.950346
38.17463,200.537295
38.18869,210.863477
38.20275,222.006465
38.21681,234.054213
38.23087,247.106759
38.24493,261.278254
38.25899,276.699407
38.26602,284.924688
38.28008,302.509002
38.29414,321.763033
38.30117,332.082458
38.31523,354.257508
38.32226,366.181158
38.332805,385.218534
38.339835,398.739901
38.35038,420.384268
38.35741,435.798308
38.367955,460.541696
38.3785,487.429168
38.389045,516.712062
38.39959,548.679015
38.410135,583.662679
38.42068,622.047848
38.431225,664.281353
38.44177,710.884158
38.452315,762.466198
38.46286,819.744696
38.46989,861.507275
38.47692,906.46364
38.480435,930.239314
38.487465,980.60695
38.494495,1035.0574
38.501525,1094.02846
38.508555,1158.01568
38.515585,1227.58125
38.522615,1303.36436
38.529645,1386.0934
38.536675,1476.60017
38.543705,1575.83654
38.550735,1684.89383
38.557765,1805.02551
38.56128,1869.68664
38.5665525,1972.98018
38.5700675,2046.36236
38.57534,2163.81222
38.578855,2247.41016
38.5841275,2381.46639
38.5876425,2477.06362
38.592915,2630.64727
38.59643,2740.36725
38.6017025,2916.94857
38.6052175,3043.30648
38.61049,3246.97866
38.6157625,3469.14963
38.621035,3711.6829
38.6263075,3976.58124
38.63158,4265.96661
38.6368525,4582.04255
38.6403675,4808.68742
38.6438825,5048.82877
38.649155,5435.67272
38.65267,5712.10917
38.656185,6003.88531
38.662512,6568.53145
38.665324,6835.79079
38.670948,7399.5176
38.67376,7695.19201
38.679384,8310.78043
38.699068,10569.0348
38.704692,11166.7717
38.70891,11571.5989
38.711722,11813.7883
38.714534,12029.5188
38.717346,12215.3093
38.720158,12368.0026
38.72297,12484.8904
38.725782,12563.8292
38.73,12608.0347
38.734218,12561.7901
38.73703,12481.5206
38.739842,12363.3437
38.742654,12209.4174
38.745466,12022.4624
38.748278,11805.6459
38.75109,11562.4567
38.755308,11156.3011
38.760932,10557.1207
38.780616,8296.41227
38.78624,7680.67948
38.789052,7384.99565
38.794676,6821.34966
38.797488,6554.17146
38.8003,6297.02885
38.803815,5989.7824
38.80733,5698.18313
38.810845,5421.94121
38.81436,5160.6303
38.817875,4913.72582
38.82139,4680.63616
38.824905,4460.72772
38.8301775,4154.14289
38.83545,3873.50796
38.8407225,3616.63715
38.845995,3381.44227
38.8512675,3165.96351
38.85654,2968.38484
38.8618125,2787.0389
38.867085,2620.40517
38.8706,2516.80253
38.8758725,2371.68846
38.8793875,2281.30242
38.88466,2154.46727
38.888175,2075.31712
38.895205,1928.80871
38.89872,1860.97313
38.90575,1735.06592
38.91278,1620.91246
38.91981,1517.16969
38.92684,1422.66923
38.93387,1336.39307
38.9409,1257.4525
38.94793,1185.0702
38.95496,1118.5648
38.96199,1057.33773
38.96902,1000.86201
38.97605,948.672604
38.986595,877.538658
38.993625,834.366337
39.000655,794.232438
39.0112,739.141214
39.021745,689.481058
39.03229,644.573977
39.042835,603.842591
39.05338,566.793089
39.063925,533.001382
39.070955,512.100776
39.0815,482.950765
39.092045,456.188926
39.10259,431.564486
39.10962,416.226284
39.12368,387.878486
39.13071,374.76671
39.14477,350.442095
39.15883,328.389082
39.16586,318.127852
39.17992,298.984981
39.19398,281.505356
39.20101,273.330164
39.21507,258.004991
39.22913,243.924254
39.24319,230.957656
39.25725,218.991415
39.27131,207.925826
39.28537,197.673237
39.29943,188.156346
39.31349,179.306781
39.32755,171.063894
39.34864,159.7207
39.3627,152.77107
39.37676,146.263272
39.39785,137.251154
39.41191,131.69612
39.42597,126.470289
39.44706,119.193884
39.46815,112.525662
39.48924,106.39992
39.51736,98.978519
39.53142,95.5548087
39.55954,89.2181678
39.5736,86.2830361
39.60172,80.8301882
39.61578,78.2951635
39.63687,74.7100707
39.654445,71.9069426
39.675535,68.7462305
39.70014,65.3148135
39.731775,61.2673929
39.766925,57.1958332
39.802075,53.5167348
39.837225,50.1813489
39.872375,47.1482553
39.907525,44.3820806
39.942675,41.8524707
39.977825,39.5332604
39.9954,38.4453554
40.03055,36.4002203
40.0657,34.5142716
40.10085,32.7714443
40.118425,31.9492289
40.17115,29.6604811
40.223875,27.6098114
40.2766,25.7653817
40.329325,24.1004975
40.38205,22.5926426
40.434775,21.2227191
40.4875,19.9744436
40.540225,18.8338637
40.59295,17.7889694
40.6281,17.1403457
40.6984,15.9460752
40.73355,15.3956684
40.80385,14.3779019
40.87415,13.4589441
40.9093,13.0325817
40.9796,12.2392781
41.0499,11.5173065
41.08505,11.1804368
41.15535,10.5503218
41.22565,9.97297655
41.29595,9.44269158
41.36625,8.9545083
41.43655,8.50410376
41.50685,8.08769534
41.57715,7.70196176
41.64745,7.34397718
41.71775,7.01115612
41.78805,6.70120701
41.85835,6.41209304
41.92865,6.14199893
41.99895,5.88930268
42.1044,5.53974211
42.1747,5.32450368
42.245,5.12218887
42.35045,4.84077393
42.42075,4.66657297
42.49105,4.50217056
42.5965,4.2723939
42.7371,3.99416858
42.8074,3.8658816
42.948,3.62858017
43.0183,3.51873002
43.1589,3.3147877
43.2292,3.2200439
43.3698,3.04356524
43.4401,2.96131628
43.5807,2.80765224
43.651,2.73582722
43.7916,2.60127216
43.8619,2.53821203
44.0728,2.36414633
44.2432246,2.23826401
44.4243,2.11710824
44.6352,1.99030763
44.8461,1.87691412
44.9867,1.80788606
45.1976,1.71306956
45.3382,1.65510551
45.5491,1.5751774
45.6897,1.52613569
45.86545,1.46914446
46.07635,1.40648291
46.3927,1.32280605
46.70905,1.24980939
47.0254,1.18591267
47.34175,1.1298232
47.7284,1.0703332
48.0096,1.03248262
48.2908,0.998617618
48.7126,0.954368323
48.9938,0.928713461
49.4156,0.895253796
49.6968,0.875932471
50.1186,0.850904069
50.3998,0.836596308
50.8216,0.818326932
51.1028,0.808090263
51.6652,0.791801272
51.9464,0.785571065
52.5088,0.776573293
53.0712,0.771806018
53.3524,0.770891239
53.90074,0.771751798
54.46314,0.776088899
54.7584,0.779712114
55.4811283,0.792382533
56.24876,0.81167498
57.008,0.836718586
57.29623,0.847818699
57.87269,0.872748881
58.28319,0.892807544
58.65,0.912433418
59.365,0.95560232
59.71,0.978914524
60.17,1.0127145
60.515,1.04023723
60.975,1.08005714
61.3775,1.11805858
61.8375,1.16542995
62.24,1.21064616
62.67125,1.26337847
63.1025,1.32099344
63.5265625,1.3829204
63.950625,1.45065648
64.381875,1.52618783
64.8275,1.61214227
65.25875,1.7039553
65.54625,1.77043251
65.8625,1.84894624
66.17875,1.93365747
66.495,2.02520956
66.7825,2.11498836
67.1275,2.23186334
67.415,2.33771159
67.76,2.47609548
68.105,2.6284266
68.45,2.79661546
68.795,2.98291465
69.14,3.1899949
69.3125,3.30230014
69.5274892,3.45133376
69.7003525,3.5790774
69.8875,3.72603195
70.06,3.87012106
70.2325,4.02320171
70.405,4.18603611
70.635,4.41979495
70.8075,4.60883827
70.98,4.81083939
71.1525,5.02700952
71.325,5.25870512
71.4975,5.50744938
71.67,5.77495737
71.8425,6.06316583
72.015,6.3742685
72.1875,6.71075812
72.36,7.07547672
72.5325,7.47167609
72.6475,7.7551201
72.7625,8.05544705
72.935,8.54062735
73.05,8.88946901
73.165,9.26064826
73.3375,9.86362718
73.4525,10.2996718
73.5675,10.7659034
73.74,11.5281919
73.855,12.0831561
73.97,12.6799316
74.1425,13.6630798
74.2575,14.3845274
74.3725,15.1655886
74.4875,16.0130232
74.6025,16.9345767
74.7175,17.9391583
74.8325,19.0370568
74.9475,20.2402048
75.005,20.8855043
75.09125,21.9135442
75.20625,23.4079905
75.26375,24.2137855
75.35,25.5035554
75.419,26.6117347
75.4765,27.5918228
75.5455,28.8417064
75.603,29.949835
75.672,31.3666387
75.718,32.3681755
75.787,33.9635057
75.856,35.6805435
75.925,37.5319772
75.994,39.5321895
76.063,41.6975348
76.132,44.0466728
76.201,46.6009676
76.247,48.4297832
76.293,50.3687931
76.362,53.5038899
76.408,55.7598976
76.454,58.1620097
76.523,62.0676311
76.569,64.8944445
76.615,67.9190906
76.684,72.8687943
76.73,76.4754727
76.776,80.3566199
76.822,84.5406668
76.868,89.0598002
76.914,93.9505703
76.96,99.254615
77.006,105.019527
77.052,111.299898
77.098,118.158579
77.121,121.827054
77.167,129.692959
77.213,138.341336
77.236,142.991477
77.2705,150.415734
77.2935,155.688711
77.328,164.129236
77.351,170.140013
77.3855,179.788583
77.4085,186.679515
77.443,197.77463
77.4775,209.876722
77.512,223.109406
77.535,232.628932
77.5695,248.074388
77.604,265.084089
77.6385,283.871944
77.673,304.688751
77.7075,327.829863
77.742,353.6447
77.7535,362.913427
77.7765,382.548597
77.788,392.952771
77.811,415.037652
77.834,438.978096
77.857,464.979768
77.8685,478.825354
77.8915,508.366736
77.9145,540.615426
77.9375,575.895626
77.9605,614.57833
77.9835,657.088895
78.0065,703.915853
78.0295,755.621111
78.0525,812.851665
78.064,843.767622
78.08125,893.305909
78.09275,928.605768
78.10425,965.867713
78.11575,1005.2239
78.133,1068.49725
78.1445,1113.73017
78.16175,1186.57367
78.17325,1238.7294
78.1905,1322.84108
78.202,1383.13971
78.21925,1480.48212
78.2365,1586.80949
78.25375,1702.96026
78.271,1829.79737
78.2825,1920.71781
78.294,2017.01553
78.31125,2172.0371
78.32275,2282.71569
78.33425,2399.42706
78.3446,2509.68946
78.3584,2664.39327
78.3768,2883.9595
78.386,2999.10556
78.4044,3238.7956
78.4688,4117.37584
78.4872,4349.61852
78.501,4506.77131
78.5102,4600.70891
78.5194,4684.30907
78.5286,4756.21999
78.5378,4815.21722
78.547,4860.25243
78.5562,4890.4981
78.57,4906.96684
78.5792,4898.37096
78.5884,4874.25949
78.5976,4835.08516
78.6068,4781.5711
78.616,4714.67812
78.6252,4635.56291
78.6344,4545.53065
78.6436,4445.98517
78.6574,4282.012
78.6758,4043.58277
78.7264,3348.35967
78.7448,3103.37149
78.7632,2870.06811
78.7724,2758.6034
78.7908,2546.97141
78.80575,2386.49221
78.823,2214.16261
78.8345,2106.77265
78.846,2005.19223
78.8575,1909.21621
78.87475,1775.25059
78.88625,1692.24198
78.89775,1613.97504
78.915,1504.90254
78.9265,1437.37145
78.938,1373.70259
78.95525,1284.93237
78.9725,1203.58447
78.98975,1128.97185
79.007,1060.46536
79.02425,997.492402
79.0415,939.534051
79.053,903.447606
79.07025,852.828203
79.0875,806.07404
79.1105,749.140334
79.1335,697.709135
79.145,673.852009
79.168,629.492537
79.191,589.178967
79.2025,570.395112
79.2255,535.317594
79.2485,503.257745
79.2715,473.892638
79.2945,446.939514
79.3175,422.150251
79.3405,399.306641
79.3635,378.216349
79.3865,358.709468
79.4095,340.635566
79.4325,323.861156
79.4555,308.267531
79.4785,293.748898
79.5015,280.210776
79.536,261.559503
79.559,250.121541
79.582,239.404119
79.6165,224.553177
79.6395,215.394544
79.6625,206.776043
79.697,194.772339
79.7315,183.769516
79.766,173.660733
79.812,161.41383
79.835,155.764431
79.881,145.310062
79.904,140.468599
79.95,131.476488
79.973,127.297296
80.019,119.509229
80.065,112.407717
80.088,109.089685
80.134,102.875606
80.18,97.1730767
80.203,94.4964039
80.249,89.4616899
80.295,84.8156082
80.341,80.5194153
80.41,74.6577763
80.456,71.0959388
80.502,67.7811937
80.548,64.6913239
80.594,61.8065425
80.64,59.1091824
80.686,56.5834307
80.732,54.2151008
80.778,51.9914364
80.824,49.9009427
80.87,47.9332401
80.916,46.0789372
80.962,44.3295207
81.008,42.6772585
81.077,40.3658133
81.146,38.2361021
81.238,35.6475529
81.33,33.3117997
81.376,32.2285941
81.468,30.2140102
81.537,28.823824
81.5945,27.7369319
81.6635,26.5114711
81.744,25.1811583
81.79,24.4652114
81.905,22.8027576
81.9625,22.0340274
82.0775,20.6081652
82.1925,19.3156666
82.3075,18.14045
82.4225,17.0687825
82.5375,16.0888805
82.6525,15.1905872
82.7675,14.3651109
82.8825,13.6048105
82.9975,12.9030203
83.1125,12.2539037
83.2275,11.6523333
83.4,10.8293855
83.515,10.3280336
83.63,9.86054842
83.8025,9.21640331
83.9175,8.82125994
84.0325,8.45088325
84.205,7.93739064
84.3775,7.46912813
84.55,7.04095157
84.7225,6.64842681
84.895,6.2877154
85.125,5.85055059
85.24,5.64881334
85.47,5.27533332
85.585,5.10229183
85.815,4.78074058
86.045,4.48858506
86.16,4.35242782
86.39,4.098029
86.62,3.86526741
86.735,3.75624496
86.9358693,3.5765685
87.1658693,3.38621917
87.425,3.18941537
87.77,2.95296346
88.0,2.80966067
88.23,2.67656172
88.46,2.55272518
88.69,2.43731554
88.92,2.32958928
89.15,2.22888296
89.38,2.13460312
89.61,2.04621761
89.84,1.96324814
90.185,1.84801821
90.415,1.77679442
90.645,1.70965193
90.875,1.64628703
91.105,1.58642371
91.45,1.50265056
91.91,1.40104218
92.37,1.30957088
92.6,1.26722429
93.06,1.18859791
93.29,1.1520667
93.75,1.08401051
93.98,1.05228725
94.44,0.993008186
94.67,0.96529434
95.13,0.913363802
95.36,0.889019909
95.82,0.843288487
96.05,0.821797663
96.51,0.781332262
96.74,0.762273112
97.43,0.709336233
98.12,0.66207051
98.58,0.633328971
99.27,0.593884286
99.73,0.569787826
100.42,0.536577975
100.88,0.51620899
101.34,0.497125087
101.915,0.474925561
102.605,0.450486307
102.95,0.439089085
103.64,0.417792201
103.985,0.407839686
104.675,0.389207617
105.02,0.380485223
106.055,0.356464222
107.09,0.335318111
108.01,0.318628996
108.985568,0.302842166
109.877784,0.289941059
