energy [eV],cross section [b]
1e-05,425.801011
1.09515124e-05,406.88311
1.19030249e-05,390.281591
1.29350152e-05,374.389184
1.41279612e-05,358.234203
1.53209073e-05,344.004866
1.62171026e-05,334.364543
1.72141961e-05,324.536467
1.87098362e-05,311.29484
1.97069297e-05,303.317493
2.09570223e-05,294.131939
2.22071149e-05,285.733353
2.34572075e-05,278.01542
2.47073001e-05,270.890907
2.62745869e-05,262.687353
2.86255173e-05,251.669451
3.09764476e-05,241.930949
3.39238952e-05,231.182234
3.68713427e-05,221.749635
4.00680821e-05,212.719937
4.25316308e-05,206.467415
4.62269538e-05,198.043228
5.02348231e-05,189.97887
5.33234644e-05,184.394788
5.64121057e-05,179.275831
6.10450676e-05,172.338668
6.49174103e-05,167.119654
6.87897531e-05,162.347777
7.26620959e-05,157.962633
7.65344387e-05,153.914655
8.38167857e-05,147.076442
9.10991328e-05,141.075528
9.89974127e-05,135.330937
0.000108127558,129.491438
0.000117257704,124.347998
0.000127932284,119.047338
0.000135563483,115.648128
0.000147010281,111.054564
0.000155609637,107.942444
0.00016517715,104.769713
0.000174744664,101.861256
0.000184312177,99.1823114
0.000195093505,96.4029038
0.000207088647,93.5693665
0.00021908379,90.9718498
0.000231078932,88.5793085
0.000244595878,86.0970453
0.000267154002,82.3820437
0.000289712127,79.1098673
0.000316086133,75.7376735
0.00034436808,72.5611198
0.000372650028,69.7534321
0.00039628877,67.6411363
0.000419927513,65.7098128
0.000455385627,63.0998987
0.000482023377,61.3316949
0.000511660135,59.5290568
0.000541296893,57.8765718
0.000570933651,56.3544895
0.000604330375,54.7753298
0.000641487065,53.1654179
0.000678643754,51.6896065
0.000715800444,50.3302565
0.000780963493,48.1849554
0.000850840549,46.1641203
0.000920717604,44.377952
0.00100832503,42.4065064
0.00109593246,40.6764613
0.00119094962,39.0203217
0.00126417405,37.8735504
0.00133739848,36.8223038
0.00144723512,35.3976713
0.00153903926,34.3258885
0.00163084341,33.3459354
0.00172264756,32.4454065
0.00181445171,31.6141222
0.00198709905,30.2098515
0.00210219727,29.3713982
0.0022172955,28.5991138
0.00241914748,27.3803167
0.00263560177,26.2322415
0.00285205607,25.217494
0.00312343275,24.0974989
0.00330435054,23.4287826
0.00357572723,22.5225563
0.00380255049,21.8407882
0.00414278538,20.9251452
0.00436960865,20.3750816
0.0046252086,19.8043981
0.00490958524,19.2226095
0.00519396188,18.68929
0.00547833852,18.1980639
0.00579879355,17.6884254
0.00633359367,16.9257096
0.00686839379,16.2539297
0.00749365951,15.5616394
0.00816415803,14.9095372
0.00883465655,14.3331805
0.00939507559,13.899588
0.0102357042,13.3172698
0.0110763327,12.8025966
0.0117789506,12.4154123
0.0124815685,12.0614149
0.0135354954,11.5830612
0.0143272532,11.2589966
0.015208151,10.9286373
0.0160890488,10.6258114
0.0169699466,10.3468969
0.0185148094,9.90674995
0.0201714302,9.49217818
0.02231936,9.02505068
0.02455484,8.60558833
0.0263333138,8.31080321
0.0282346172,8.02702607
0.0308385858,7.68186585
0.0334425545,7.37789669
0.0353987744,7.17198775
0.037575235,6.96209521
0.040839926,6.6793486
0.0430163866,6.50903824
0.0457450951,6.31296326
0.0484738036,6.13371723
0.0512025121,5.96902591
0.0556417615,5.72750568
0.0607733843,5.48206826
0.0641944661,5.33509962
0.0676155479,5.1994603
0.0740492515,4.97039624
0.080482955,4.76946149
0.087460814,4.57719123
0.0928382606,4.44410835
0.0982157073,4.32215262
0.106281877,4.15695031
0.11412188,4.0135447
0.123685682,3.85751005
0.13747577,3.66202173
0.150154624,3.50673513
0.158607194,3.41379002
0.167059763,3.32804004
0.176775922,3.23722844
0.186492082,3.15366492
0.2059244,3.00479455
0.222735167,2.89219828
0.242664495,2.77433559
0.262593823,2.67030826
0.280160371,2.58808923
0.29772692,2.51335615
0.321349355,2.42283034
0.344299985,2.34410053
0.35937647,2.29661032
0.374452955,2.25207145
0.401144505,2.17958986
0.447045765,2.07080563
0.49941188,1.96595743
0.55922381,1.86523552
0.610966459,1.79072957
0.664937,1.72285664
0.73378889,1.6479123
0.785080951,1.59897955
0.84854204,1.54510978
0.8944433,1.51005925
0.980081006,1.45200508
1.03214708,1.42070554
1.1239496,1.37167977
1.24716732,1.31619433
1.30755464,1.29266008
1.39935716,1.26090148
1.53706094,1.22144529
1.62886346,1.20021866
1.72066598,1.18300606
1.85836976,1.16524793
1.95017228,1.15966333
2.00974708,1.15933215
2.06492543,1.16183988
2.13377732,1.16966201
2.17967858,1.17849333
2.22557984,1.1909813
2.2714811,1.20804157
2.32656261,1.23635667
2.37246387,1.26864251
2.40918488,1.30205429
2.44590589,1.34430719
2.47344664,1.38341697
2.49180715,1.41385824
2.51016765,1.4484606
2.53770841,1.50975934
2.55606891,1.5582241
2.56524916,1.58515937
2.58360967,1.64531275
2.59278992,1.67894689
2.61115042,1.75457382
2.62033068,1.79716371
2.63410105,1.86801898
2.64328131,1.92052264
2.65705168,2.00843808
2.67082206,2.10917969
2.68459244,2.22527194
2.69377269,2.31272798
2.70295294,2.40953677
2.70754307,2.46185832
2.71672332,2.57528419
2.72131345,2.63681963
2.72590357,2.70189063
2.73278876,2.80672072
2.73967395,2.92113351
2.74426408,3.00330322
2.7488542,3.09063832
2.75573939,3.23227854
2.76262458,3.38816403
2.76950977,3.5602114
2.7740999,3.68498021
2.78098509,3.88913588
2.78787027,4.11634149
2.79475546,4.37007559
2.80164065,4.65447487
2.80852584,4.97448282
2.81541103,5.33603654
2.81770609,5.46698476
2.82229622,5.74630265
2.82459128,5.89533497
2.82918141,6.21397573
2.83147647,6.3843926
2.8360666,6.74965658
2.83836166,6.94549462
2.84295179,7.3663311
2.84524685,7.59254929
2.84983698,8.07997457
2.85213204,8.3426881
2.85672216,8.91030744
2.86131229,9.54051247
2.86590242,10.2419091
2.86819748,10.6223453
2.87049254,11.0244067
2.87278761,11.4495635
2.87508267,11.8993888
2.87737773,12.3755633
2.87967279,12.8798788
2.88196786,13.4142423
2.88426292,13.9806768
2.88655798,14.5813216
2.88885305,15.2184296
2.89114811,15.8943604
2.89344317,16.6115701
2.89573824,17.3725939
2.8980333,18.1800227
2.90032836,19.036469
2.90377096,20.4186894
2.90721355,21.9253148
2.91065615,23.5635912
2.91409874,25.3388213
2.91777084,27.3857094
2.92144294,29.5874748
2.92511504,31.9319811
2.92878714,34.3951311
2.93888542,41.3924326
2.94255752,43.7954397
2.9453116,45.4495731
2.94714765,46.454664
2.9489837,47.3645593
2.95081975,48.1651418
2.9526558,48.8432841
2.95449185,49.3873484
2.9563279,49.7876635
2.95816395,50.0369439
2.96027541,50.1311071
2.96183605,50.0670405
2.9636721,49.8475661
2.96550815,49.4764849
2.9673442,48.9608186
2.96918025,48.3099998
2.9710163,47.5354589
2.97285235,46.650151
2.97560643,45.1452462
2.9783605,43.4716708
2.98111458,41.6778128
2.99121286,34.7435673
2.99488496,32.2924595
2.99855706,29.9554154
3.00039311,28.8379503
3.00406521,26.7147648
3.00704879,25.1034888
3.01049139,23.3720325
3.01278645,22.292425
3.01508151,21.27078
3.01737658,20.305103
3.02081917,18.9565288
3.02311423,18.1205218
3.0254093,17.3319843
3.02885189,16.2326028
3.03114695,15.5516416
3.03344202,14.9094132
3.03688461,14.0136266
3.03917967,13.4582647
3.04147474,12.9339449
3.04491733,12.2014387
3.04835993,11.5283207
3.05180252,10.9090434
3.05639265,10.1584785
3.05868771,9.81239822
3.06327784,9.17268462
3.0655729,8.87690701
3.07016302,8.32868568
3.07245809,8.07450684
3.07704821,7.60210911
3.07934328,7.38248553
3.0839334,6.97322544
3.08852353,6.60021113
3.09081859,6.42603191
3.09540872,6.10008472
3.09999884,5.80135724
3.10229391,5.66129705
3.10688403,5.39817176
3.11376922,5.04171557
3.11835935,4.82664622
3.12294947,4.62760042
3.1275396,4.44306102
3.13442479,4.19054678
3.13901491,4.03670187
3.14360504,3.8932605
3.14819517,3.75932027
3.15278529,3.63407252
3.15903219,3.47628758
3.16655567,3.30357943
3.1711458,3.20652862
3.18032605,3.02912694
3.1895063,2.87128319
3.19868655,2.73024117
3.2078668,2.60370846
3.21704706,2.48976688
3.22163718,2.43700307
3.23081743,2.33900114
3.23999769,2.2500068
3.24917794,2.16894729
3.25835819,2.09490393
3.27212857,1.99529544
3.28130882,1.93556587
3.29048907,1.88052113
3.29966932,1.82967973
3.30884958,1.78262027
3.32721008,1.69841103
3.33639033,1.66064722
3.35475084,1.59252048
3.37311134,1.53286969
3.38229159,1.50578214
3.4006521,1.45635509
3.4190126,1.4124511
3.44655336,1.35521311
3.46491386,1.32186819
3.49245462,1.27780405
3.51081512,1.25180543
3.54753613,1.20646544
3.58425714,1.16834673
3.60261764,1.15150269
3.62556827,1.13221355
3.67146953,1.0986059
3.69442016,1.08389267
3.74032142,1.05787007
3.80917331,1.02561687
3.8780252,0.999476408
3.96982772,0.971468532
4.06163024,0.949093005
4.19933402,0.922797043
4.29113654,0.908718189
4.42884032,0.891264919
4.52064284,0.88149502
4.70424788,0.865250398
4.97965544,0.846719115
5.34686552,0.829084707
5.80587812,0.814288477
6.26489072,0.804906273
6.6321008,0.800290124
6.99931088,0.797754387
7.36652096,0.797006167
7.82553356,0.798279105
8.65175624,0.805992788
9.3861764,0.8181043
9.78555954,0.82664165
10.4878066,0.844913355
10.8550167,0.856125852
11.2222268,0.868494754
11.956647,0.896808156
12.323857,0.912826886
13.0399167,0.947869622
13.6090923,0.97957414
14.0313839,1.00548698
14.5271175,1.03871701
15.137907,1.0842177
15.6471083,1.12639879
16.0326788,1.16117267
16.6110347,1.21840334
17.1893906,1.28244034
17.6484032,1.33873873
18.225,1.41726752
18.65,1.48143498
18.8625,1.51573758
19.2843334,1.58864806
19.7648333,1.68035083
20.084375,1.7470611
20.403125,1.81868824
20.88125,1.9367894
21.2,2.02350809
21.51875,2.11742626
21.8375,2.21935145
22.0765625,2.30160199
22.315625,2.38931573
22.634375,2.51562321
22.9,2.62992214
23.165625,2.75337596
23.43125,2.88698769
23.696875,3.03190299
23.9757813,3.19766923
24.2633008,3.3849778
24.5513107,3.59155467
24.8390625,3.81953532
25.13125,4.07633432
25.4234375,4.36251841
25.5695313,4.51805902
25.715625,4.68277471
25.875,4.87380056
26.034375,5.07769356
26.19375,5.29564293
26.353125,5.52897916
26.5125,5.77919466
26.671875,6.04796805
26.83125,6.33719279
26.990625,6.64901111
27.15,6.98585434
27.3359375,7.41418182
27.4421875,7.67785534
27.575,8.02878345
27.7078125,8.40560654
27.840625,8.81095224
27.9734375,9.24779114
28.10625,9.71949203
28.2390625,10.2298879
28.3984375,10.8996453
28.53125,11.5114802
28.690625,12.3190113
28.8234375,13.0612342
28.903125,13.540393
28.9828125,14.0473306
29.0625,14.5842472
29.1421875,15.1535656
29.221875,15.7579591
29.3015625,16.4003828
29.38125,17.0841104
29.4609375,17.8127762
29.540625,18.5904239
29.6203125,19.4215634
29.6734375,20.0078399
29.753125,20.9396341
29.8328125,21.9397636
29.9125,23.0151045
29.965625,23.777576
30.0453125,24.9960253
30.125,26.3127616
30.2046875,27.738686
30.291953,29.4402602
30.3640625,30.969759
30.44375,32.805647
30.5234375,34.81294
30.603125,37.0137238
30.65625,38.6009577
30.709375,40.2942408
30.7890625,43.0545017
30.8421875,45.0578063
30.8953125,47.2063797
30.975,50.7336658
31.028125,53.3126099
31.08125,56.0959842
31.1078125,57.5711643
31.1609375,60.7038182
31.2140625,64.1024682
31.2671875,67.7981496
31.3203125,71.8265587
31.3734375,76.2289187
31.4132813,79.8045711
31.4664062,84.981072
31.5195312,90.6829335
31.5726563,96.9837724
31.623125,103.603404
31.6709375,110.525284
31.7028125,115.535382
31.729375,119.977143
31.76125,125.656026
31.7825,129.670325
31.80375,133.881247
31.835625,140.595134
31.8675,147.829813
31.899375,155.640521
31.93125,164.089999
31.963125,173.249749
31.995,183.201538
32.026875,194.039214
32.05875,205.870905
32.090625,218.821699
32.1225,233.036923
32.14375,243.298818
32.165,254.254718
32.196875,272.131412
32.218125,285.118097
32.239375,299.057178
32.27125,321.962697
32.2925,338.725521
32.31375,356.830492
32.335,376.423987
32.35625,397.672756
32.3775,420.767396
32.39875,445.926526
32.42,473.401839
32.44125,503.48423
32.4625,536.511281
32.48375,572.87645
32.505,613.040407
32.515625,634.712666
32.5315625,669.422164
32.5528125,720.267602
32.5634375,747.868289
32.579375,792.307666
32.59,824.145091
32.6059375,875.575778
32.6165625,912.547718
32.6325,972.488409
32.643125,1015.73834
32.6590625,1086.13376
32.6696875,1137.13392
32.685625,1220.50238
32.7015625,1313.17771
32.7175,1416.55883
32.7228125,1453.677
32.7334375,1532.30858
32.73875,1573.97304
32.749375,1662.41308
32.7546875,1709.37011
32.7653125,1809.25645
32.770625,1862.40481
32.78125,1975.71495
32.7865625,2036.1425
32.7971875,2165.2761
32.8078125,2306.54677
32.8184375,2461.43964
32.8290625,2631.65747
32.8396875,2819.15587
32.8503125,3026.18416
32.8582813,3195.81558
32.8689062,3443.48786
32.8742187,3577.46106
32.8821875,3792.37589
32.8875,3945.68834
32.8928125,4107.66298
32.898125,4278.886
32.9060938,4554.44403
32.9114062,4751.62375
32.9167188,4960.43487
32.9220313,5181.65874
32.93,5538.59009
32.9353125,5794.56246
32.9432812,6207.88624
32.95125,6659.40026
32.9592188,7152.53691
32.9671875,7690.75657
32.9751562,8277.39608
32.983125,8915.44459
32.9884375,9370.55778
32.99375,9850.01248
33.00225,10668.0098
33.0065,11100.1216
33.015,12008.0587
33.02775,13463.1965
33.051125,16241.7653
33.059625,17191.7808
33.066,17843.6782
33.07025,18238.5969
33.0745,18594.9895
33.07875,18907.2607
33.083,19170.2241
33.08725,19379.3009
33.0915,19530.7087
33.09575,19621.6271
33.0997875,19650.3816
33.10425,19616.2439
33.1085,19520.0209
33.11275,19363.4622
33.117,19149.4571
33.12125,18881.8479
33.1255,18565.2624
33.12975,18204.9244
33.134,17806.454
33.140375,17149.9935
33.148875,16195.308
33.17225,13411.0263
33.18075,12429.7553
33.18925,11495.2487
33.1935,11048.7618
33.202,10201.0276
33.2089062,9558.18692
33.216875,8867.87055
33.2221875,8437.68702
33.2275,8030.77485
33.2328125,7646.31297
33.2407812,7109.673
33.24875,6618.08846
33.2567188,6168.082
33.2646875,5756.21042
33.2726562,5379.16091
33.280625,5033.80874
33.2885938,4717.24794
33.2965625,4426.80354
33.3045312,4160.03148
33.3125,3914.7108
33.3178125,3762.08014
33.3257813,3548.14175
33.3310938,3414.79
33.3390625,3227.52461
33.344375,3110.57587
33.355,2893.90851
33.3603125,2793.49755
33.3709375,2606.96399
33.3815625,2437.64611
33.386875,2358.82337
33.3975,2211.75303
33.408125,2077.4853
33.41875,1954.63661
33.429375,1841.99676
33.44,1738.50496
33.450625,1643.22937
33.46125,1555.34957
33.471875,1474.14161
33.4825,1398.96527
33.4984375,1296.28624
33.5090625,1233.84264
33.5196875,1175.70447
33.535625,1095.75307
33.54625,1046.80844
33.556875,1001.00835
33.5728125,937.64506
33.58875,880.011885
33.6046875,827.448689
33.620625,779.386302
33.6365625,735.332109
33.6525,694.858201
33.663125,669.678437
33.684375,623.20598
33.695,601.740006
33.71625,561.967238
33.726875,543.525949
33.748125,509.235876
33.769375,478.057083
33.78,463.519147
33.80125,436.344409
33.8171875,417.485994
33.833125,399.812354
33.854375,377.925144
33.875625,357.771038
33.896875,339.17298
33.92875,313.859308
33.95,298.512903
33.97125,284.25593
33.9925,270.988234
34.01375,258.62085
34.035,247.07455
34.05625,236.278592
34.0775,226.169662
34.09875,216.690955
34.12,207.791396
34.151875,195.428517
34.173125,187.785098
34.194375,180.578186
34.22625,170.516039
34.258125,161.266176
34.29,152.743792
34.3325,142.38561
34.35375,137.594429
34.39625,128.705104
34.4175,124.577756
34.46,116.893029
34.48125,113.312704
34.513125,108.240761
34.545,103.499476
34.576875,99.0608152
34.6140625,94.2314744
34.6671875,87.9181515
34.7203125,82.2143175
34.7734375,77.0442053
34.8265625,72.3434436
34.8796875,68.057063
34.9328125,64.1378979
34.9859375,60.5452952
35.0390625,57.2440659
35.065625,55.6929996
35.11875,52.7727327
35.171875,50.0745159
35.2515625,46.3963899
35.3046875,44.1631951
35.3578125,42.0861543
35.4375,39.2327996
35.5171875,36.657812
35.596875,34.3262398
35.6765625,32.2084411
35.75625,30.2791454
35.8359375,28.5167031
35.915625,26.9024807
35.9953125,25.420371
36.075,24.0563932
36.18125,22.400686
36.234375,21.6356329
36.340625,20.2175645
36.39375,19.5597728
36.4734375,18.6311407
36.553125,17.7665076
36.60625,17.2227876
36.7125,16.2069697
36.765625,15.7321226
36.871875,14.8423985
36.978125,14.0254009
37.084375,13.273451
37.190625,12.5798553
37.296875,11.9387581
37.403125,11.3450185
37.509375,10.7941088
37.615625,10.2820285
37.721875,9.80523259
37.828125,9.36057072
37.934375,8.94523566
38.1017501,8.34447697
38.2,8.01938094
38.30625,7.6885804
38.4125,7.3776834
38.51875,7.08513543
38.678125,6.67767864
38.784375,6.42513609
38.890625,6.18656679
39.05,5.85274006
39.2625,5.44788623
39.36875,5.26096413
39.58125,4.91476416
39.6875,4.75430172
39.9,4.45603465
40.00625,4.31730309
40.1125,4.18494649
40.271875,3.99753939
40.5375,3.71205886
40.75,3.50518378
40.85625,3.40819765
41.06875,3.22598427
41.175,3.14034441
41.3875,2.9790656
41.70625,2.75969386
41.91875,2.6267954
42.2375,2.44500397
42.45,2.33427726
42.6625,2.23105823
42.875,2.13469465
43.0875,2.0446034
43.3,1.96026191
43.5125,1.88120077
43.725,1.8069974
44.04375,1.70397684
44.203125,1.65588526
44.521875,1.5659043
44.68125,1.52378704
45.0,1.44478633
45.159375,1.40771816
45.478125,1.33802898
45.95625,1.24351588
46.275,1.18643712
46.7,1.11683302
47.125,1.05383854
47.5160358,1.00105142
47.8106905,0.964222717
48.1875,0.92047265
48.6125,0.875214451
49.0375,0.833849543
49.25,0.814500358
49.8875,0.761255056
50.525,0.714412312
51.1625,0.673094906
51.8,0.636576535
52.4375,0.604252436
53.075,0.575616526
53.7125,0.550243457
54.35,0.527774455
54.9875,0.507906032
55.625,0.490380971
56.4325,0.471209027
56.87875,0.461940391
57.325,0.453547492
58.175,0.439819942
58.7275,0.432381387
59.5080072,0.423729531
60.3,0.417047124
60.725,0.414293147
61.3375,0.411313337
61.95,0.409476328
62.924,0.408867776
63.53,0.409914918
64.136,0.412063918
65.045,0.417396382
65.651,0.422403312
66.257,0.428623383
67.166,0.440358706
67.772,0.449895567
68.378,0.460911528
69.287,0.480461935
70.196,0.504072945
70.802,0.522362027
71.408,0.542940527
72.014,0.5660666
72.4685,0.585264357
72.923,0.606214243
73.3775,0.629085501
73.832,0.654071068
74.51375,0.696004813
75.082423,0.735642307
75.65,0.780085863
76.1045,0.819688244
76.4075,0.848311315
76.7105,0.878886775
77.0135,0.91158363
77.3165,0.946590125
77.6195,0.984116413
77.9225,1.02439767
78.2255,1.06769775
78.5285,1.11431345
78.8315,1.16457956
79.1345,1.21887486
79.4375,1.27762919
79.7405,1.34133199
80.0435,1.4105424
80.195,1.44740972
80.498,1.52611331
80.801,1.61211451
80.9525,1.6581332
81.2555,1.75684874
81.5585,1.86544872
81.71,1.92386933
81.93725,2.01718204
82.08875,2.0834869
82.316,2.18967722
82.505375,2.28490791
82.69475,2.38687919
82.884125,2.4962401
83.0924375,2.62594525
83.30075,2.76657725
83.5090625,2.91939609
83.6700312,3.04673898
83.8262656,3.1788337
83.9872344,3.32451092
84.1482031,3.48084945
84.3091719,3.64891504
84.474875,3.83544287
84.6453125,4.04316337
84.81575,4.26880382
84.9861875,4.51448699
85.1755625,4.81396411
85.346,5.11046729
85.535375,5.47410867
85.72475,5.87900825
85.8194375,6.09891014
85.914125,6.3316578
86.0088125,6.5782725
86.1224375,6.89410658
86.217125,7.17535354
86.33075,7.5366088
86.4065,7.79309393
86.520125,8.20352628
86.595875,8.49573406
86.7095,8.96470037
86.78525,9.2995922
86.898875,9.83878627
86.974625,10.2251062
87.08825,10.8492956
87.164,11.2981474
87.277625,12.0261962
87.39125,12.8278429
87.504875,13.7133594
87.6185,14.6948742
87.732125,15.7867901
87.7889375,16.3793989
87.84575,17.0063151
87.9025625,17.6702395
87.959375,18.3741444
88.0161875,19.1213062
88.073,19.9153437
88.1298125,20.7602621
88.186625,21.6605036
88.2434375,22.6210053
88.30025,23.6472676
88.3570625,24.7454322
88.413875,25.9223744
88.4706875,27.1858107
88.5464375,29.0201056
88.60325,30.5210868
88.679,32.7114278
88.7396,34.6388025
88.807775,37.018768
88.87595,39.6536293
88.90625,40.9161106
88.9517,42.9262831
88.982,44.3500544
89.02745,46.6226187
89.05775,48.2363172
89.1032,50.8189133
89.1335,52.6578078
89.17895,55.6093676
89.20925,57.7172839
89.2547,61.1113901
89.285,63.5433195
89.33045,67.4727864
89.3759,71.7783232
89.42135,76.5093243
89.45165,79.9278155
89.4971,85.5011403
89.54255,91.6773928
89.588,98.5463497
89.63345,106.215043
89.6486,108.970475
89.6789,114.811868
89.69405,117.909638
89.72435,124.491879
89.75465,131.638483
89.777375,137.408106
89.8001,143.563434
89.8304,152.431386
89.84555,157.174747
89.87585,167.345833
89.90615,178.529311
89.93645,190.862696
89.96675,204.507382
89.99705,219.653725
90.0122,227.85896
90.02735,236.527416
90.0425,245.694142
90.05765,255.397516
90.0728,265.679621
