energy [eV],cross section [b]
1e-05,366.181173
1.09847504e-05,349.382366
1.16412507e-05,339.387858
1.2297751e-05,330.204752
1.34548984e-05,315.686516
1.46982444e-05,302.039397
1.59415904e-05,290.021762
1.75114391e-05,276.716844
1.8558005e-05,268.801038
2.01278538e-05,258.105915
2.14492479e-05,250.029208
2.34313391e-05,239.22048
2.47527333e-05,232.747712
2.62476266e-05,226.022712
2.87502152e-05,215.961691
3.04186076e-05,209.955723
3.2087e-05,204.424496
3.52467686e-05,195.04645
3.84065373e-05,186.850963
4.18428911e-05,179.014127
4.58324153e-05,171.045654
4.98219396e-05,164.054583
5.28308389e-05,159.314436
5.61889547e-05,154.480488
6.12261285e-05,147.98955
6.6704223e-05,141.78267
7.09441804e-05,137.480693
7.51841378e-05,133.547964
7.94240952e-05,129.934515
8.42207593e-05,126.180259
8.957413e-05,122.351712
9.7604186e-05,117.21081
0.00010633714,112.294888
0.00011647589,107.296396
0.000126614639,102.911018
0.000138528347,98.3864541
0.000147062471,95.4892049
0.000159863657,91.5864432
0.000174905906,87.5598155
0.000185681092,84.9814148
0.000196456278,82.6181688
0.000207231465,80.4417288
0.000220836216,77.9246765
0.000234440967,75.6300378
0.000248045719,73.5268761
0.00026165047,71.5899626
0.000287416511,68.3059865
0.000313182551,65.4361251
0.000341203981,62.6918648
0.000373736187,59.9015198
0.000406268393,57.4534458
0.000444495906,54.9276832
0.00047187935,53.3103477
0.000512954517,51.1317113
0.000543933409,49.6545407
0.000578507749,48.1481457
0.00061308209,46.7710546
0.00064765643,45.5057688
0.000686770382,44.1911845
0.000752250731,42.2244991
0.000795904296,41.0504877
0.000839557862,39.9692831
0.000922233357,38.1361467
0.00100490885,36.534186
0.00109482121,35.00235
0.0011992073,33.4448058
0.00130359339,32.0783293
0.00142625401,30.6685052
0.00151411927,29.7657549
0.00160198453,28.9383446
0.00168984979,28.1763471
0.00180078847,27.2951091
0.00191172716,26.4917517
0.00202266584,25.755442
0.00213360453,25.0773454
0.00234371132,23.9276786
0.00248378252,23.2436991
0.00262385371,22.6152619
0.00287074322,21.6217494
0.00313602408,20.6878861
0.00340130494,19.865561
0.00373624858,18.9551935
0.00395954434,18.4135909
0.00429448799,17.6818575
0.00457642124,17.129296
0.0048583545,16.6255814
0.00514028775,16.1639186
0.00542222101,15.7387666
0.00577818996,15.2471017
0.00613415892,14.7989055
0.00649012788,14.3881312
0.00684609684,14.0098473
0.00752026651,13.3685279
0.00819443618,12.8081364
0.00892761819,12.2723273
0.00977882488,11.7275849
0.0106300316,11.2497231
0.0116302563,10.756765
0.0123467454,10.4411474
0.013421479,10.0160507
0.0142320432,9.72786561
0.0151366824,9.43401698
0.0160413217,9.16542801
0.0169459609,8.91867939
0.0179693793,8.66235418
0.0196826757,8.27895727
0.0208248733,8.05013868
0.0219670709,7.839445
0.0244667677,7.4310693
0.0265178131,7.14017445
0.0286460485,6.87208639
0.0313773154,6.5689663
0.0341085823,6.30314222
0.0361685039,6.1229751
0.0384675025,5.93930665
0.0419160005,5.69279277
0.0442149991,5.54479598
0.047117715,5.37370902
0.0500204309,5.21781272
0.0529231468,5.07499229
0.0558258627,4.94352323
0.0594908321,4.79156027
0.0649882862,4.58834597
0.0704857404,4.40955779
0.0774268266,4.21182146
0.0843679127,4.03921938
0.0919165756,3.87437111
0.0977591197,3.76024492
0.106522936,3.60718738
0.116053878,3.46105725
0.123430675,3.35992352
0.130807472,3.26758923
0.141872667,3.14303637
0.151186612,3.0491476
0.160500556,2.9636978
0.169814501,2.88551017
0.179128445,2.8136253
0.196164223,2.69592918
0.204682111,2.64279991
0.219683797,2.55704585
0.241015504,2.44955766
0.263287367,2.35199751
0.28555923,2.26646894
0.304306202,2.20215121
0.332426658,2.1164956
0.360547115,2.04152162
0.384217043,1.98522651
0.407886971,1.93417972
0.443391864,1.86588479
0.470169654,1.81992462
0.500055308,1.77338128
0.529940962,1.73115513
0.559826616,1.6926601
0.612503072,1.63247482
0.650236702,1.59443135
0.687970332,1.55995151
0.747851981,1.5114268
0.806568475,1.47001363
0.843136951,1.44682926
0.916273901,1.40553661
1.00062119,1.36494939
1.08496848,1.33049237
1.19486238,1.29301324
1.27081208,1.27115857
1.34676177,1.25209321
1.46068632,1.22796823
1.59536568,1.20527088
1.67833135,1.19395858
1.8836,1.17327829
1.9764,1.16689021
2.162,1.15884474
2.40292472,1.15663051
2.626,1.16185445
2.86153605,1.17427001
3.09,1.19274464
3.2756,1.21234603
3.5402525,1.24753567
3.7396,1.27989909
4.018,1.33416562
4.2036,1.37674657
4.2964,1.40012712
4.482,1.45141553
4.6676,1.50929136
4.7700521,1.54434014
4.946,1.61021545
5.0388,1.64810576
5.2244,1.73114233
5.3172,1.77663641
5.5028,1.87658536
5.5956,1.93150926
5.7812,2.05262568
5.91768575,2.15251483
6.0132,2.22860214
6.106,2.30792387
6.1988,2.39306862
6.2916,2.48459835
6.3844,2.58314669
6.4772,2.68943015
6.57,2.80426142
6.6628,2.92856521
6.802,3.13513272
6.8948,3.28808099
6.9876,3.45493279
7.1036,3.68571026
7.2196,3.94494543
7.3124,4.17606594
7.4052,4.43149158
7.50803534,4.74723408
7.5908,5.03009344
7.6372,5.20132109
7.6836,5.38253264
7.73,5.57452342
7.7764,5.77816995
7.846,6.1076395
7.8924,6.34488933
7.9388,6.59766381
7.9852,6.86735543
8.0548,7.30705858
8.1012,7.6262441
8.1708,8.14925886
8.2172,8.53091582
8.2868,9.15984415
8.3332,9.6215161
8.3564,9.86645929
8.4028,10.3872061
8.426,10.6641813
8.4724,11.2545881
8.4956,11.5694661
8.542,12.2426051
8.5884,12.979715
8.6116,13.3748344
8.658,14.2241056
8.6812,14.6809184
8.7276,15.6664271
8.76008,16.4193228
8.78792,17.1106312
8.81576,17.8484004
8.85288,18.9118203
8.88072,19.775492
8.91784,21.0257782
8.95496,22.4029039
8.99208,23.9246668
9.0292,25.612097
9.04776,26.5255686
9.0756,27.9928774
9.09416,29.041633
9.11272,30.1519935
9.13128,31.3288831
9.14984,32.577727
9.1684,33.9045137
9.18696,35.3158664
9.20552,36.8191252
9.23336,39.2644181
9.25192,41.0351562
9.27048,42.9306471
9.28904,44.9628713
9.31688,48.2974555
9.33544,50.7341101
9.36328,54.7549809
9.38184,57.7105263
9.39112,59.2798629
9.40968,62.6189144
9.43373222,67.387079
9.45608,72.3270944
9.46536,74.5405112
9.48392,79.2852939
9.4932,81.830277
9.51176,87.3036735
9.52104,90.2493009
9.5396,96.6070227
9.54888,100.041114
9.56744,107.482233
9.58136,113.621028
9.59528,120.299735
9.6092,127.582686
9.62312,135.543922
9.63704,144.268968
9.64632,150.558338
9.6556,157.264196
9.66952,168.185692
9.6788,176.103227
9.68808,184.585412
9.69736,193.685957
9.70664,203.464932
9.71592,213.98965
9.7252,225.335714
9.73448,237.588212
9.74376,250.843121
9.75304,265.208944
9.76232,280.808616
9.7716,297.781738
9.7832,321.173671
9.79248,341.852305
9.79712,352.918428
9.80408,370.508707
9.80872,382.943322
9.81568,402.744802
9.82032,416.768095
9.82728,439.141168
9.83192,455.015299
9.83888,480.389453
9.84584,507.804274
9.8528,537.464533
9.85976,569.597822
9.86672,604.456886
9.87368,642.321987
9.88064,683.503227
9.8876,728.342622
9.89456,777.215713
9.90152,830.532319
9.90616,868.76302
9.9108,909.304299
9.91776,974.76634
9.9224,1021.72648
9.92704,1071.51972
9.934,1151.85444
9.93864,1209.389
9.94328,1270.26596
9.94792,1334.60524
9.95488,1437.80907
9.960912,1533.86846
9.96648,1627.97169
9.972048,1727.12073
9.977616,1830.96649
9.986896,2012.79438
10.007312,2426.87198
10.014736,2568.3904
10.020304,2665.47228
10.024016,2724.26778
10.027728,2777.31101
10.03144,2823.76731
10.035152,2862.86284
10.038864,2893.91428
10.042576,2916.35703
10.046288,2929.76988
10.0498144,2933.91065
10.053712,2928.64628
10.057424,2914.12094
10.061136,2890.58758
10.064848,2858.47744
10.06856,2818.3642
10.072272,2770.939
10.075984,2716.98213
10.079696,2657.33327
10.085264,2559.09167
10.092688,2416.25931
10.113104,1999.86595
10.120528,1853.16451
10.127952,1713.47816
10.131664,1646.74766
10.139088,1520.0643
10.14512,1424.0149
10.15208,1320.88781
10.15672,1256.63117
10.16136,1195.85733
10.166,1138.44292
10.17296,1058.31378
10.1776,1008.6708
10.18224,961.868943
10.1892,896.655436
10.19384,856.285051
10.19848,818.227932
10.20544,765.174486
10.2124,716.565387
10.21936,671.98859
10.22632,631.066863
10.23328,593.456918
10.24024,558.847723
10.2472,526.958349
10.25416,497.535597
10.2588,479.177271
10.26808,445.201383
10.27272,429.472709
10.282,400.284093
10.28664,386.734334
10.29592,361.521827
10.3052,338.586897
10.30984,327.892944
10.31912,307.90919
10.3284,289.628429
10.33768,272.869941
10.34696,257.475342
10.35624,243.305519
10.36552,230.238011
10.3748,218.164773
10.38408,206.990267
10.39336,196.62982
10.40728,182.453294
10.41656,173.816769
10.42584,165.765015
10.43976,154.674795
10.44904,147.875259
10.45832,141.505233
10.47224,132.680411
10.48152,127.239356
10.4908,122.120116
10.50472,114.991727
10.51864,108.459474
10.53256,102.459616
10.55112,95.1929793
10.5604,91.8418394
10.57896,85.6420964
10.58824,82.7717359
10.6068,77.441977
10.61608,74.9655656
10.63464,70.3518935
10.6532,66.1464118
10.66248,64.1820079
10.68104,60.5039883
10.6996,57.1299244
10.70888,55.5466112
10.72744,52.5692349
10.746,49.8226397
10.76456,47.2837691
10.7924,43.8212811
10.81096,41.7182129
10.82952,39.7617198
10.84808,37.9385915
10.86664,36.237065
10.8852,34.6466395
10.90376,33.1579178
10.92232,31.7624709
10.94088,30.4527208
10.95944,29.2218403
10.978,28.0636657
10.99656,26.972621
11.01512,25.9436524
11.03368,24.972171
11.06152,23.6137077
11.08936,22.3627182
11.12648,20.8431523
11.1636,19.4729691
11.18216,18.8378926
11.21928,17.6573914
11.24712,16.8432939
11.27032,16.2071273
11.29816,15.4902173
11.33064,14.7124343
11.3492,14.2940628
11.3956,13.3232197
11.4188,12.8746153
11.4652,12.0431203
11.5116,11.2901209
11.558,10.6061151
11.6044,9.98299232
11.6508,9.41379583
11.6972,8.8925321
11.7436,8.41401524
11.79,7.97374013
11.8364,7.56777817
11.8828,7.19269112
11.9110313,6.97828277
11.9549157,6.66402641
11.9988,6.37110816
12.0452,6.08254214
12.0916,5.81378386
12.1612,5.44401455
12.2076,5.2175335
12.254,5.00551463
12.3236,4.71204145
12.3932,4.44495148
12.4628,4.20122962
12.5324,3.97827867
12.602,3.77385187
12.6948,3.5267621
12.7412,3.41301511
12.834,3.2029584
12.8804,3.10589073
12.9268,3.01367559
12.9964,2.88378596
13.066,2.76319079
13.1124,2.68754243
13.2052,2.54664398
13.2516,2.48099447
13.3444,2.35840141
13.3908,2.30113765
13.4836,2.19395611
13.6228,2.0496691
13.7156,1.96319039
13.8548,1.84618342
13.9476,1.77573013
14.0868,1.68002255
14.1796,1.62218684
14.3188,1.54338233
14.4116,1.49563778
14.5044,1.45136886
14.5972,1.41030468
14.7828,1.33684244
14.8756,1.30402875
15.0388695,1.25194695
15.2468,1.19492762
15.3396,1.1724966
15.5252,1.13265033
15.7108,1.09888418
15.8036,1.08408433
15.9892,1.05831978
16.1748,1.03729788
16.2676,1.02844625
16.4532,1.0138643
16.7316,0.99932469
17.01,0.993024865
17.2884,0.994568016
17.5245,1.0018919
17.7375,1.01324638
18.0,1.03357708
18.2,1.05395136
18.35,1.07214386
18.5,1.09296012
18.6,1.10836371
18.8,1.14305276
18.9440391,1.17145131
19.1,1.2056852
19.2,1.22967389
19.4,1.28283788
19.5,1.31221811
19.7,1.37716779
19.8,1.41301135
20.0,1.49223048
20.15,1.55897085
20.25,1.60735553
20.35,1.65914138
20.5,1.743814
20.65,1.83784764
20.8,1.94251114
20.9,2.01892398
21.0,2.10123841
21.15,2.23706426
21.3,2.38977902
21.45,2.56215063
21.55,2.68962163
21.65,2.8284937
21.7,2.90262222
21.8,3.06121008
21.85,3.14609172
21.95,3.32821303
22.0,3.42598336
22.1,3.6364374
22.15,3.74979523
22.25,3.99468163
22.3,4.12707689
22.4,4.41424208
22.475,4.65144343
22.525,4.82118701
22.575,5.00107788
22.65,5.29175952
22.7,5.50079994
22.75,5.72325766
22.8,5.96030229
22.85,6.21323402
22.9,6.48350151
22.95,6.77272275
23.025,7.24611555
23.075,7.5911416
23.125,7.96250838
23.2,8.57505982
23.25,9.02512742
23.3,9.51290583
23.35,10.0427275
23.4,10.6195658
23.45,11.2491521
23.5,11.9381187
23.55,12.694174
23.6,13.5263189
23.65,14.4451159
23.675,14.9408177
23.72,15.9011613
23.77,17.0832785
23.8,17.8581626
23.82,18.4049346
23.84,18.9776339
23.88,20.207608
23.9,20.8686318
23.94,22.2933351
23.9743497,23.6382322
24.0,24.7245629
24.03,26.0940594
24.06,27.5819185
24.09,29.2021583
24.11,30.3637393
24.13,31.5966737
24.16,33.5930541
24.18,35.0318171
24.2,36.5657125
24.23,39.0638957
24.25,40.8752048
24.27,42.8161569
24.3,45.9987037
24.32,48.3224865
24.34,50.8274849
24.36,53.5329452
24.38,56.4607217
24.4,59.6357097
24.42,63.0863635
24.44,66.8453198
24.46,70.9501514
24.48,75.4442814
24.5,80.3781003
24.52,85.8103368
24.53,88.7344025
24.545,93.4074005
24.555,96.7296493
24.57,102.053212
24.58,105.848404
24.595,111.947448
24.605,116.308465
24.62,123.338881
24.63,128.382162
24.645,136.540318
24.655,142.413252
24.67,151.94899
24.685,162.459989
24.7,174.080922
24.715,186.969909
24.73,201.313431
24.745,217.33243
24.75,223.088504
24.76,235.289941
24.765,241.759243
24.775,255.500638
24.785,270.40999
24.795,286.618131
24.8025,299.715301
24.8125,318.566619
24.82,333.848731
24.83,355.91848
24.8375,373.870557
24.8475,399.887386
24.8575,428.561307
24.8675,460.239725
24.8775,495.322716
24.8825,514.282343
24.89,544.67283
24.895,566.335704
24.9,589.208755
24.905,613.373623
24.9125,652.235925
24.9175,680.02605
24.925,724.791794
24.93,756.851794
24.9375,808.565848
24.9425,845.645139
24.95,905.510065
24.9575,970.903103
24.965,1042.33127
24.9725,1120.31153
24.9775,1176.19015
24.9825,1235.34928
24.99,1330.51731
24.995,1398.40036
25.0,1469.91517
25.008,1591.93024
25.018,1757.191
25.028,1935.00431
25.056,2460.09247
25.064,2599.0267
25.07,2693.09989
25.074,2749.36625
25.078,2799.47274
25.082,2842.60987
25.086,2878.04354
25.09,2905.14423
25.094,2923.41377
25.1,2933.55195
25.104,2928.60929
25.108,2914.38677
25.112,2891.15095
25.116,2859.33044
25.12,2819.49648
25.124,2772.33814
25.128,2718.63395
25.132,2659.2222
25.138,2561.30495
25.146,2418.84404
25.168,2003.12561
25.18,1785.78109
25.188,1650.26339
25.192,1585.78977
25.198,1493.40259
25.2025,1427.57256
25.2075,1357.90733
25.215,1260.16182
25.2225,1170.23352
25.23,1087.69773
25.2375,1012.0651
25.2425,965.223659
25.25,899.947046
25.255,859.532746
25.2625,803.202735
25.2675,768.308501
25.2725,735.388477
25.2775,704.319051
25.2825,674.983489
25.2875,647.27189
25.2925,621.081053
25.2975,596.314258
25.3025,572.881012
25.3075,550.696758
25.3125,529.682561
25.3175,509.764795
25.325,481.795095
25.335,447.737432
25.345,416.973144
25.355,389.116146
25.365,363.83119
25.375,340.826857
25.385,319.849449
25.39,310.050566
25.4,291.707607
25.405,283.118379
25.415,267.002149
25.42,259.438061
25.43,245.213735
25.435,238.522885
25.445,225.914133
25.45,219.970836
25.465,203.448187
25.475,193.421086
25.49,179.684598
25.5,171.306581
25.515,159.775184
25.525,152.709977
25.54,142.943739
25.55,136.935121
25.565,128.596799
25.575,123.447172
25.59,116.275208
25.6,111.830461
25.61,107.632116
25.62,103.662531
25.64,96.3465703
25.66,89.7693911
25.68,83.835802
25.7,78.4653132
25.72,73.589521
25.74,69.1500122
25.76,65.0966781
25.775,62.2839066
25.79,59.6479375
25.81,56.383656
25.83,53.3779858
25.85,50.6044977
25.88,46.8297268
25.91,43.459157
25.94,40.4373929
25.97,37.718169
26.0,35.2626094
26.03,33.0378617
26.05,31.6689661
26.08,29.7689245
26.11,28.0339813
26.14,26.4456305
26.16,25.4601814
26.19,24.0816703
26.22,22.8116423
26.26,21.2681304
26.3,19.8754987
26.32,19.2297148
26.36,18.0287519
26.4,16.9364804
26.445,15.8218713
26.49,14.8134413
26.525,14.0941038
26.575,13.1537816
26.625,12.3042967
26.675,11.5343518
26.7,11.1761496
26.75,10.5079667
26.775,10.1960925
26.825,9.61255103
26.85,9.33937106
26.9,8.82679865
26.925,8.58618611
26.975,8.13355861
27.0,7.92055087
27.05,7.51890072
27.075,7.32944392
27.125,6.97141691
27.2,6.48169315
27.25,6.18338051
27.325,5.77317994
27.375,5.52204315
27.45,5.17508572
27.5,4.96170714
27.575,4.66566875
27.625,4.48286489
27.675,4.31065992
27.725,4.14825293
27.8,3.92144203
27.85,3.78049275
27.95,3.52065324
28.05,3.28694759
28.15,3.07599751
28.25,2.88495259
28.35,2.71139445
28.45,2.55326051
28.55,2.40878309
28.65,2.27644028
28.7,2.21440098
28.8,2.09784783
28.9,1.99045582
29.05,1.84454029
29.2,1.71449543
29.35,1.59811169
29.5,1.49355053
29.65,1.39927222
29.8,1.31397943
29.95,1.23657293
30.1,1.16611639
30.2700165,1.09365351
30.4,1.04295928
30.5,1.00646203
30.7,0.939335919
30.8,0.908434518
31.0,0.851359445
31.2,0.799906622
31.3,0.776063706
31.5,0.731756118
31.7,0.691502641
31.8,0.672746148
32.0,0.637711347
32.2,0.605673851
32.4,0.576309159
32.7,0.536667833
32.9,0.512831323
33.1,0.490829438
33.3,0.47048586
33.6,0.442744876
33.8,0.42590593
34.0,0.410255006
34.2,0.395689926
34.4,0.382119513
34.6,0.369462219
34.8,0.357644939
35.0,0.346602002
35.4,0.326608512
35.7,0.313246852
35.85,0.307038557
36.3,0.290114206
36.6,0.280111489
37.05,0.266793638
37.5,0.255266963
37.8594631,0.247199434
38.3,0.238547496
38.7,0.231759226
39.1,0.225896203
39.5,0.220886015
39.9,0.216669233
40.3,0.213197847
40.7,0.210434037
41.115,0.208284002
41.57224,0.206735352
42.20296,0.205984106
42.83368,0.206841796
43.4644,0.209359088
43.88488,0.212009023
44.41048,0.216495237
44.88352,0.221742907
45.19888,0.22593718
45.51424,0.2307371
45.98728,0.2391848
46.46032,0.249317636
46.72312,0.255769126
47.03848,0.264379248
47.24872,0.270695245
47.56408,0.281124767
47.77432,0.288776174
48.0673302,0.300476485
48.29992,0.310713543
48.51016,0.320768237
48.7204,0.331659324
49.03576,0.349748224
49.246,0.363117202
49.56136,0.385421006
49.7716,0.401987527
49.87672,0.410838124
50.08696,0.429785567
50.19208,0.439932173
50.40232,0.461710317
50.61256,0.485680468
50.8228,0.512134811
50.92792,0.526398565
51.13816,0.557241922
51.3484,0.591548864
51.55864,0.629845931
51.76888,0.672764642
51.92656,0.708439569
52.08424,0.74752059
52.18936,0.775682732
52.29448,0.805703196
52.45216,0.854586156
52.55728,0.89002028
52.6624,0.927982285
52.76752,0.968717232
52.87264,1.01250071
52.97776,1.05964353
53.08288,1.11049724
53.24056,1.19462318
53.34568,1.25662261
53.4508,1.32399174
53.50336,1.35988563
53.60848,1.43653494
53.7136,1.52033719
53.79244,1.58842984
53.87128,1.66150157
53.9764,1.76754468
54.08152,1.88469162
54.18664,2.01454891
54.29176,2.15902479
54.34432,2.23744053
54.39688,2.32039985
54.44944,2.40826087
54.502,2.50141769
54.55456,2.60030489
54.60712,2.70540253
54.65968,2.81724207
54.71224,2.93641307
54.7648,3.06357098
54.81736,3.19944619
54.86992,3.34485455
54.92248,3.50070963
54.97504,3.66803714
55.0276,3.84799179
55.08016,4.04187734
55.13272,4.25117019
55.18528,4.47754763
55.21156,4.59773029
55.26412,4.85340336
55.31668,5.13147095
55.36924,5.43462701
55.4218,5.76598279
55.44808,5.94334129
55.50064,6.32394443
55.5532,6.74292265
55.57948,6.96843452
55.63204,7.45527128
55.668832,7.82747849
55.700368,8.16943708
55.731904,8.53457364
55.76344,8.92502901
55.784464,9.2005691
55.826512,9.79175918
55.86856,10.4423879
55.910608,11.1606856
55.952656,11.956355
55.994704,12.8408972
56.02624,13.5707794
56.047264,14.0926974
56.068288,14.645475
56.089312,15.231587
56.110336,15.8537609
56.13136,16.5150076
56.152384,17.2186581
56.173408,17.9684044
56.194432,18.7683478
56.215456,19.623054
56.23648,20.5376171
56.257504,21.5177353
56.278528,22.5697973
56.299552,23.7009855
56.331088,25.5641243
56.352112,26.930905
56.373136,28.4101473
56.39416,30.0144542
56.404672,30.86793
56.425696,32.6874921
56.44672,34.6722209
56.457232,35.7327914
56.478256,38.0045861
56.488768,39.2221789
56.509792,41.8386153
56.520304,43.2454848
56.541328,46.2791522
56.55184,47.9161714
56.572864,51.4595581
56.583376,53.3790923
56.599144,56.4640763
56.614912,59.8213427
56.63068,63.4833971
56.646448,67.4876569
56.662216,71.8773502
56.677984,76.7026093
56.688496,80.1898679
56.699008,83.9161052
56.714776,90.0020198
56.725288,94.426846
56.7358,99.1787836
56.751568,106.991445
56.76208,112.710626
56.772592,118.887932
56.783104,125.571951
56.793616,132.817615
56.804128,140.687175
56.81464,149.251329
56.825152,158.590552
56.830408,163.579012
56.838292,171.495596
56.848804,182.93459
56.85406,189.067404
56.861944,198.831291
56.8672,205.744376
56.875084,216.770985
56.88034,224.592675
56.888224,237.092245
56.89348,245.975587
56.901364,260.198991
56.90662,270.326667
56.914504,286.573323
56.91976,298.163258
56.927644,316.789975
56.935528,337.043337
56.943412,359.09153
56.951296,383.119586
56.95918,409.329954
56.967064,437.94248
56.974948,469.193449
56.982832,503.333213
56.990716,540.621763
56.9986,581.321372
57.003856,610.475322
57.009112,641.327793
57.014368,673.940287
57.022252,726.263822
