energy [eV],cross section [b]
1e-05,23050.2229
1.08504611e-05,22128.5934
1.17009221e-05,21309.3713
1.2963454e-05,20245.3102
1.43545698e-05,19239.5208
1.54767792e-05,18529.0311
1.63300824e-05,18038.549
1.76100371e-05,17370.8004
1.84633403e-05,16964.7559
2.00335755e-05,16286.533
2.16038107e-05,15683.6745
2.39348663e-05,14900.6464
2.52190985e-05,14516.4368
2.77875628e-05,13829.5472
3.01507868e-05,13276.744
3.25140108e-05,12785.3714
3.50558864e-05,12313.3563
3.69886722e-05,11987.5067
3.98878509e-05,11543.8954
4.18206367e-05,11274.147
4.41917582e-05,10967.714
4.65628797e-05,10685.0014
5.13051228e-05,10179.5744
5.42139901e-05,9902.93208
5.71228574e-05,9647.70522
6.29405919e-05,9191.41927
6.82934442e-05,8824.21265
7.36462965e-05,8497.8195
7.94038058e-05,8184.29183
8.37816882e-05,7967.85669
9.03485118e-05,7673.20886
9.74117645e-05,7390.17789
0.000102782505,7194.79702
0.000110838616,6928.81428
0.000122798126,6583.36113
0.000135975663,6256.85396
0.000150647465,5945.02449
0.000166813532,5650.30334
0.000179854656,5442.13349
0.000194728928,5230.74348
0.00021456129,4983.88273
0.000226726358,4848.77769
0.000238891426,4724.1402
0.000263221563,4501.34084
0.000285607532,4322.06232
0.000307993501,4162.73063
0.000341226063,3955.8218
0.000377843229,3760.29421
0.000407382201,3622.20736
0.00042984298,3526.89835
0.000463534149,3397.1702
0.00051354958,3228.72296
0.000541104231,3146.09453
0.000596213532,2998.41596
0.000646919172,2879.61196
0.000697624811,2774.0498
0.000752163621,2672.68577
0.000814368773,2569.7896
0.000855838874,2507.5419
0.00092274652,2416.14287
0.00097362161,2353.07497
0.00104993424,2267.25556
0.00116322237,2155.86947
0.00128804843,2050.68163
0.00142702912,1950.31745
0.00158016444,1855.55984
0.0017036983,1788.69775
0.00184459692,1720.86717
0.00203246173,1641.75059
0.00220531469,1578.17216
0.00237816765,1521.73937
0.00256408769,1467.61035
0.00270545716,1430.29448
0.00291751138,1379.56796
0.00305888085,1348.76914
0.00323231145,1313.82891
0.00340574206,1281.64166
0.00375260327,1224.22717
0.00396536613,1192.88013
0.00417812899,1164.01478
0.00460365472,1112.55769
0.00486466999,1084.48287
0.00512568526,1058.64463
0.00564771581,1012.62163
0.006007454,984.583421
0.00646800656,952.292882
0.00692855911,923.413938
0.00751780608,890.588302
0.00810705306,861.593661
0.00898180575,824.234647
0.00946372713,806.04657
0.0104275699,773.80358
0.0116100022,740.318004
0.0127924345,712.030629
0.0142430301,682.800248
0.0156936258,658.259613
0.0169763853,639.646952
0.0184939799,620.641788
0.0203443596,601.036915
0.0225275246,581.902433
0.0240393303,570.700524
0.025863861,559.021717
0.0277016987,548.984061
0.0302542322,537.443734
0.0325363562,529.10879
0.0345434905,523.091274
0.036637856,517.953995
0.0391903895,513.079293
0.0436087612,507.734094
0.04684799,505.966947
0.051953057,506.375687
0.0552784497,508.543929
0.0596106575,513.454632
0.0638974666,520.544829
0.067268258,527.653784
0.0698207915,533.939516
0.0749258585,548.899116
0.077478392,557.615336
0.082583459,577.674417
0.0851359925,589.098672
0.0902410595,614.993949
0.0953461265,645.388731
0.0987766096,668.662663
0.103003727,700.903466
0.105556261,722.487387
0.108108794,745.832872
0.111937594,784.507735
0.115766395,828.136018
0.119595195,877.472193
0.122301057,916.269343
0.124700262,953.733912
0.128529062,1020.27021
0.129805329,1044.49737
0.132357862,1096.38127
0.133634129,1124.17175
0.136186662,1183.82007
0.138739196,1249.44825
0.14129173,1321.81022
0.142567996,1360.78207
0.14512053,1444.90691
0.147528427,1532.62515
0.150225597,1641.80444
0.15277813,1757.18799
0.15469253,1852.38316
0.155968797,1920.37517
0.157245064,1992.26322
0.158521331,2068.29582
0.159797597,2148.73377
0.161711998,2278.24894
0.162988264,2370.91241
0.164264531,2468.9728
0.165540798,2572.7261
0.166817065,2682.46666
0.168093331,2798.48095
0.169369598,2921.03963
0.170645865,3050.38727
0.172560265,3257.57389
0.174474665,3480.93057
0.176516692,3737.00356
0.177537705,3871.73743
0.179579732,4153.60463
0.181621759,4449.64867
0.187747839,5368.29595
0.189279359,5585.73982
0.190810879,5788.32963
0.192852906,6025.10537
0.19387392,6125.19365
0.194894933,6210.80822
0.195915946,6280.40975
0.19693696,6332.66521
0.197957973,6366.50501
0.198978987,6381.17191
0.2,6376.25774
0.201021013,6351.7248
0.202042027,6307.91
0.20306304,6245.5113
0.204084054,6165.55742
0.205105067,6069.36354
0.20612608,5958.47629
0.207147094,5834.61244
0.208678614,5628.48835
0.210720641,5325.48243
0.217357228,4269.1299
0.219399255,3958.21237
0.220420268,3808.90785
0.222462295,3524.52999
0.224504322,3260.52831
0.225525335,3136.40073
0.226801602,2988.61847
0.228716002,2782.03543
0.230630402,2592.88755
0.232544802,2420.18996
0.234459202,2262.81878
0.236373602,2119.59557
0.238288003,1989.34481
0.239564269,1909.15482
0.241478669,1798.03233
0.242754936,1729.61671
0.244031203,1665.40056
0.24530747,1605.1162
0.24722187,1521.51554
0.248498137,1469.99384
0.249774403,1421.59079
0.25105067,1376.1074
0.253603203,1293.17095
0.25487947,1255.38493
0.257432004,1186.4312
0.259984537,1125.42768
0.262537071,1071.45285
0.265089604,1023.71314
0.267642138,981.525217
0.270194671,944.300636
0.272747205,911.53256
0.275526065,880.416372
0.277852272,857.680288
0.280404805,835.896605
0.282957339,817.155328
0.285509872,801.218029
0.289338673,782.132311
0.291891206,772.379439
0.29444374,764.843629
0.296996273,759.414062
0.300825073,755.027052
0.303377607,754.509959
0.307206407,757.232181
0.309758941,761.341664
0.313587741,770.931131
0.316140274,779.624559
0.318664816,790.064886
0.321109303,801.960709
0.323668645,816.356617
0.326227986,832.813071
0.328787328,851.422952
0.331346669,872.297472
0.335185681,908.148061
0.337745023,935.305778
0.340304365,965.287014
0.342863706,998.309713
0.346702718,1054.1021
0.34926206,1095.89977
0.351821401,1141.77938
0.354380743,1192.13829
0.355660413,1219.1369
0.358219755,1277.08566
0.360779097,1340.77297
0.363338438,1410.83379
0.36589778,1487.99578
0.36717745,1529.496
0.369736792,1618.91334
0.372296133,1717.75818
0.373575804,1771.07899
0.376135145,1886.33861
0.377414816,1948.6424
0.379974158,2083.61257
0.381253829,2156.72971
0.383173335,2274.14321
0.384453005,2357.97502
0.386372512,2492.79901
0.388292018,2639.49013
0.390211524,2799.24732
0.39213103,2973.38455
0.394050536,3163.33255
0.395970042,3370.63532
0.397889548,3596.93889
0.399809054,3843.96847
0.401088725,4021.04096
0.402368396,4208.63055
0.403648067,4407.24253
0.404927737,4617.35187
0.406207408,4839.38438
0.407487079,5073.69312
0.40876675,5320.52942
0.409918453,5553.49117
0.411454058,5879.95188
0.41309007,6247.11401
0.414525268,6584.60244
0.416572741,7087.68781
0.421691424,8403.6142
0.423738897,8917.38823
0.425786371,9395.21239
0.427321976,9715.92873
0.428345712,9906.07861
0.429369449,10073.7959
0.430393185,10216.2643
0.431416922,10330.9488
0.432440659,10415.698
0.433464395,10468.8377
0.434488132,10489.2467
0.435409495,10479.1922
0.437047473,10395.2556
0.43807121,10301.1947
0.439094946,10176.9761
0.440118683,10024.7171
0.44114242,9846.9414
0.442166156,9646.47741
0.443189893,9426.35157
0.444725498,9066.12506
0.446261103,8679.11703
0.452403522,7043.34651
0.454450995,6517.42869
0.456498469,6017.98455
0.457522205,5779.81752
0.459569678,5328.39751
0.46123325,4986.75449
0.463152756,4620.52036
0.464432427,4392.63205
0.465712098,4177.31316
0.466991769,3974.09314
0.468271439,3782.45053
0.46955111,3601.83323
0.470830781,3431.67448
0.472110452,3271.40505
0.474029958,3048.31679
0.475309629,2910.34156
0.476589299,2780.35737
0.478508806,2599.28486
0.480428312,2433.50991
0.482347818,2281.59056
0.484267324,2142.21257
0.48618683,2014.18426
0.488106336,1896.42905
0.490025842,1787.97688
0.491945348,1687.9552
0.493864855,1595.58
0.496424196,1483.10119
0.497703867,1431.02465
0.500263208,1334.37095
0.501542879,1289.49687
0.50410222,1205.98657
0.506774609,1126.80992
0.509220904,1060.71767
0.510500574,1028.35127
0.513059916,967.76212
0.515619257,912.20921
0.518178599,861.169664
0.519458269,837.196625
0.522017611,792.083344
0.524576953,750.435702
0.527136294,711.918144
0.529695635,676.233542
0.532254977,643.118204
0.534814319,612.337602
0.53737366,583.682691
0.539933002,556.966752
0.542492343,532.022658
0.546331355,497.605047
0.548890697,476.467546
0.551450038,456.639941
0.55528905,429.129911
0.559128063,404.025414
0.562967075,381.058664
0.566806087,359.997577
0.5706451,340.640294
0.575763782,317.179666
0.578323124,306.354355
0.583441807,286.317157
0.586001149,277.036002
0.591119831,259.795402
0.593679173,251.781677
0.598797856,236.8467
0.601357198,229.882458
0.607755551,213.786949
0.614153905,199.364438
0.620489208,186.515009
0.625607891,177.048081
0.632069296,166.128922
0.637187979,158.20865
0.644866003,147.394828
0.649984686,140.820019
0.655103369,134.699167
0.660222052,128.99204
0.667900077,121.129628
0.673018759,116.307965
0.678137442,111.789998
0.683256126,107.551202
0.688374809,103.56947
0.693493491,99.8248364
0.698612175,96.2992292
0.703730858,92.9762633
0.711408882,88.3395781
0.721646248,82.7385013
0.731883614,77.7196378
0.74212098,73.2071983
0.752358346,69.1373428
0.762595712,65.4559985
0.771553407,62.5171601
0.779231432,60.1864991
0.79330781,56.3147753
0.806104518,53.1910342
0.812502871,51.7543631
0.825299579,49.1047499
0.831697933,47.8824189
0.84449464,45.6219625
0.850892994,44.5764908
0.863689701,42.63874
0.870088055,41.7406512
0.889283116,39.2989536
0.908478178,37.1906998
0.921274885,35.9458835
0.935675206,34.6810071
0.953266654,33.3103417
0.966063361,32.4214523
0.985258423,31.2405329
0.99805513,30.5453682
1.01725019,29.6268797
1.03644525,28.8434317
1.04924196,28.3894629
1.06203867,27.9861526
1.08763208,27.319953
1.10042879,27.0521456
1.1260222,26.637056
1.15161562,26.3722501
1.17720903,26.2483271
1.20280245,26.259013
1.22839586,26.4008398
1.25659309,26.7079808
1.2825417,27.1324179
1.30849031,27.6975376
1.33443892,28.4109078
1.36038753,29.2832342
1.38633614,30.3287805
1.41228475,31.5659633
1.43823336,33.0181661
1.46418197,34.7148419
1.47715628,35.6660763
1.49013058,36.6929979
1.50310488,37.8017417
1.51607919,38.9992035
1.52905349,40.293146
1.54851495,42.4344209
1.56797641,44.8472883
1.58095071,46.6270178
1.59392502,48.5603291
1.60689932,50.6637962
1.61987363,52.9564208
1.63284794,55.4600658
1.64582224,58.1999838
1.65230939,59.6675198
1.6652837,62.8182386
1.678258,66.2878142
1.69123231,70.1195428
1.70290918,73.9197675
1.71588349,78.5881343
1.72885779,83.7948377
1.73404751,86.0468091
1.74442696,90.8748227
1.7548064,96.1823829
1.75999612,99.0360434
1.77037557,105.189377
1.77556529,108.51002
1.78594473,115.698961
1.79113446,119.594509
1.79891904,125.857604
1.80410876,130.338421
1.81189334,137.567185
1.81967793,145.472859
1.82746251,154.143179
1.83524709,163.680664
1.84303168,174.205701
1.85081626,185.860423
1.85860084,198.813592
1.86638542,213.266815
1.87417001,229.462507
1.87676487,235.297308
1.88195459,247.694193
1.88714431,261.153437
1.89233403,275.800572
1.8949289,283.613953
1.90011862,300.321004
1.90530834,318.6213
1.91049806,338.724589
1.91309292,349.527429
1.91828264,372.808204
1.92347237,398.588515
1.92866209,427.239068
1.93125695,442.775446
1.93385181,459.201301
1.93644667,476.585581
1.93904153,495.003973
1.94163639,514.53969
1.94423126,535.284376
1.94682612,557.339128
1.94942098,580.815673
1.95201584,605.837701
1.9546107,632.542407
1.95720556,661.082249
1.96109785,707.709527
1.96369271,741.623565
1.96628757,778.058816
1.96888243,817.266543
1.97277473,881.903898
1.97536959,929.357817
1.97666702,954.532343
1.97926188,1008.0383
1.98185674,1066.14329
1.98315417,1097.08132
1.98574903,1163.08892
1.98704646,1198.31753
1.98964132,1273.66394
1.99093875,1313.97617
1.99353361,1400.41714
1.99483104,1446.78458
1.99742591,1546.47576
1.99872334,1600.09358
2.0013182,1715.69095
2.00326434,1810.42716
2.00521049,1912.81746
2.00715663,2023.63285
2.00845406,2102.60952
2.0097515,2185.98586
2.01169764,2319.95308
2.01299507,2415.66944
2.0142925,2516.91427
2.01558993,2624.05999
2.01688736,2737.50254
2.01818479,2857.66157
2.01948222,2984.98041
2.02077965,3119.9253
2.02207708,3262.98398
2.02337452,3414.66331
2.02467195,3575.48559
2.02596938,3745.98339
2.02726681,3926.69237
2.02856424,4118.14162
2.02986167,4320.84109
2.0311591,4535.26536
2.03310524,4879.78007
2.03505139,5252.63458
2.03712728,5681.97838
2.03920317,6143.14996
2.04127906,6633.47494
2.04335495,7147.76727
2.04906364,8603.34251
2.05113953,9100.76834
2.05269644,9442.0463
2.05373439,9648.77618
2.05477233,9835.33269
2.05581028,9998.7943
2.05684822,10136.4536
2.05788617,10245.9213
2.05892411,10325.2249
2.05996206,10372.8953
2.0610519,10387.9286
2.06203794,10370.3532
2.06307589,10320.1951
2.06411383,10238.5106
2.06515178,10126.8182
2.06618972,9987.13494
2.06722767,9821.88893
2.06826561,9633.81989
2.06930356,9425.87476
2.07086047,9083.36992
2.07293636,8585.46681
2.07864505,7135.17971
2.08072094,6624.92222
2.08279683,6139.55873
2.08383478,5907.89986
2.08591067,5468.56131
2.08694861,5261.26404
2.08889476,4895.00827
2.09019219,4666.89654
2.09148962,4451.29984
2.09278705,4247.82422
2.09473319,3964.3202
2.09603062,3789.04784
2.09732805,3624.13895
2.0992742,3395.02954
2.10057163,3253.68425
2.10186906,3120.85196
2.10381521,2936.4868
2.10576135,2768.58556
2.1077075,2615.68909
2.10965364,2476.46309
2.11159979,2349.69653
2.11354594,2234.29681
2.11549208,2129.28284
2.11808694,2003.91733
2.11936368,1947.87766
2.12197923,1843.67966
2.12327666,1796.92365
2.12587152,1712.43357
2.12716896,1674.42464
2.12976382,1606.28064
2.13153062,1565.54937
2.13296007,1535.77646
2.13530173,1492.87567
2.13668333,1470.85861
2.13944653,1433.87833
2.14082812,1418.82408
2.14359132,1395.43266
2.14635451,1380.90087
2.14911771,1375.24173
2.1518809,1378.61387
2.1546441,1391.32095
2.15740729,1413.81082
2.15947969,1437.44717
2.16155208,1467.21212
2.16431528,1517.01477
2.16569687,1546.49537
2.16707847,1579.17953
2.16846007,1615.18063
2.16984167,1654.60847
2.17122326,1697.5649
2.17260486,1744.13833
2.17398646,1794.39704
2.17536805,1848.38084
2.17757861,1942.48826
2.18034181,2073.04021
2.18365764,2246.27309
2.19139458,2677.65593
2.19360514,2789.13285
2.19581569,2884.81702
2.19747361,2942.40135
2.19857889,2972.6518
2.19968417,2995.644
2.20078944,3010.85763
2.20189472,3017.90413
2.203,3016.54427
2.20410528,3006.69928
2.20521056,2988.4545
2.20686847,2945.91549
2.20852639,2886.49954
2.21018431,2812.24387
2.21239486,2694.41955
2.21405278,2595.39439
2.21571069,2490.17678
2.22178972,2087.94298
2.22510556,1878.33729
2.22731611,1747.60305
2.22842139,1685.36036
2.23007931,1596.09279
2.23132274,1532.41454
2.23339514,1432.4958
2.23546754,1340.15945
2.23753993,1255.06769
2.23892153,1202.1564
2.24099392,1128.16817
2.24306632,1060.20294
2.24513872,997.776263
2.24721111,940.418618
2.24928351,887.684796
2.25066511,854.891134
2.2527375,808.955678
2.2541191,780.345562
2.25688229,727.513812
2.25826389,703.111539
2.26102708,657.925356
2.26379028,617.079779
2.26655347,580.060258
2.26931667,546.419507
2.27069827,530.742641
2.27346146,501.457451
2.27622465,474.672411
2.27898785,450.113122
2.28175104,427.54026
2.28451424,406.744701
2.28727743,387.543331
2.29004063,369.775457
2.29280382,353.299736
2.29556702,337.991558
2.29833021,323.740803
2.3010934,310.449923
2.3038566,298.032306
2.30661979,286.41087
2.30938299,275.516853
2.31214618,265.28878
2.31490938,255.671566
2.31767257,246.615747
2.32181736,233.988472
2.32734375,218.736828
2.33287014,205.057607
2.33839653,192.733399
2.34392292,181.583742
2.34944931,171.457816
2.3549757,162.228761
2.36050209,153.78922
2.36326528,149.836419
2.36879167,142.414028
2.37431806,135.576704
2.38260764,126.283341
2.39089723,117.990672
2.39918681,110.554588
2.4047132,106.013737
2.41023959,101.770695
2.41852917,95.907502
2.42681875,90.5784025
2.43510834,85.7183729
2.44339792,81.2722714
2.4516875,77.1930559
2.46274028,72.2558784
2.46826667,69.9794077
2.47931945,65.7670356
2.48484584,63.8159298
2.49589862,60.1906007
2.50142501,58.504694
2.51247778,55.3606298
2.51800417,53.8933595
2.52905695,51.1481088
2.54010973,48.6316698
2.54563612,47.4513556
2.5566889,45.2326411
2.57050487,42.7002294
2.58432084,40.4045962
2.60001335,38.0486182
2.61311272,36.26247
2.62438716,34.8423805
2.63820313,33.2351977
2.65201911,31.7599999
2.66583508,30.4032713
2.67965105,29.1532358
2.69346702,27.9995933
2.707283,26.9333029
2.72109897,25.9464028
2.74182293,24.599746
2.7556389,23.7822759
2.76945487,23.0228618
2.78327084,22.316849
2.79708682,21.6600793
2.81090279,21.0488305
2.82471876,20.4797649
2.85235071,19.4564963
2.87998265,18.5697266
2.9076146,17.8027871
2.93524654,17.1421367
2.94906252,16.8481506
2.97669446,16.3270215
3.00432641,15.8886115
3.03195835,15.5266735
3.04577432,15.3728337
3.0775,15.0848989
3.10055718,14.9309297
3.12296357,14.8248501
3.14536996,14.7613464
3.17859453,14.7460488
3.20138594,14.791258
3.22379232,14.8816181
3.24619872,15.0196931
3.2798083,15.3228316
3.30221469,15.594705
3.32462108,15.9283372
3.34702747,16.3301878
3.36943386,16.8082168
3.39184025,17.3722228
3.41424664,18.0342833
3.43665303,18.8093344
3.45905942,19.7159408
3.47026262,20.2256179
3.48146581,20.7773282
3.492669,21.3749327
3.5038722,22.0227863
3.5150754,22.7258135
3.52627859,23.4895983
3.54308338,24.763328
3.55428658,25.7087875
3.56548977,26.7414884
3.58229456,28.4769096
3.59349776,29.7760015
3.60470096,31.2057525
3.61590415,32.7834331
3.62710734,34.5293143
3.63831054,36.4673131
3.6472731,38.1749308
3.65735597,40.2858233
3.66295757,41.5551976
3.66967949,43.1791545
3.67864204,45.5329775
3.68312332,46.7987162
3.69208588,49.5281661
3.70104843,52.5528986
3.70552971,54.1893355
3.71449227,57.7414219
3.71897354,59.6712815
3.72569546,62.781026
3.73017674,65.0108741
3.73689866,68.616574
3.74137993,71.2114213
3.74810185,75.4235532
3.75258313,78.4669937
3.75930505,83.4285305
3.76378632,87.0294657
3.77050824,92.9279941
3.77723016,99.5037139
3.78395208,106.863708
3.79067399,115.136978
3.79291463,118.123811
3.79739591,124.480011
3.80075687,129.610856
3.80411783,135.084066
3.80635846,138.938202
3.81083974,147.184781
3.81308038,151.599607
3.81756166,161.075
3.82204294,171.507002
3.82652422,183.027488
3.82876486,189.243352
3.83324613,202.696042
3.83660709,213.778155
3.83884773,221.692191
3.84108837,230.064458
3.84444933,243.560778
3.84668997,253.241911
3.84893061,263.52181
3.85117124,274.450058
3.85341188,286.08138
3.85565252,298.476278
3.85789316,311.701765
3.8601338,325.832202
3.86237444,340.95026
3.86461508,357.148025
3.86797604,383.697244
3.87021668,403.071033
3.87245732,423.941327
3.87469795,446.461597
3.87581827,458.393678
3.87805891,483.720023
3.88029955,511.171639
3.88141987,525.76678
3.88366051,556.857388
3.88590115,590.723049
3.88702147,608.796311
3.88926211,647.447707
3.89150275,689.77487
3.89262307,712.456335
3.89486371,761.169489
3.89598402,787.340684
3.89822466,843.699746
3.89990514,889.825626
3.90158562,939.619332
3.9032661,993.446448
3.90494658,1051.71346
3.90662706,1114.8721
3.90774738,1159.94089
3.9088677,1207.56733
3.91054818,1284.18454
3.91236089,1374.45407
3.91348121,1434.57017
3.9144693,1490.54884
3.91558962,1557.58711
3.91670994,1628.65691
3.91839041,1743.39554
3.91951073,1825.71178
3.92063105,1913.01986
3.92175137,2005.61186
3.92287169,2103.78171
3.92399201,2207.81999
3.92511233,2318.00705
3.92623265,2434.60416
3.92791313,2622.01236
3.92959361,2824.92767
3.93138612,3058.691
3.93317863,3309.89723
3.93497114,3577.10179
3.93676365,3857.48886
3.94169306,4651.6863
3.94348557,4923.31171
3.94482996,5109.74331
3.94572621,5222.70764
3.94662247,5324.67358
3.94751872,5414.04011
3.94841498,5489.3222
3.94931123,5549.20776
3.95020749,5592.61171
3.95110374,5618.72331
3.95195519,5627.05359
3.95334438,5605.89647
3.95424064,5569.76336
3.95513689,5516.738
3.95603315,5447.78488
3.95692941,5364.11894
3.95782566,5267.15417
3.95872192,5158.44745
3.9600663,4976.97491
3.96185881,4709.37852
3.96723635,3842.33235
3.96992511,3425.78421
3.97171762,3166.0862
3.97261388,3042.53959
3.97440639,2808.7473
3.97552671,2671.76341
3.97664703,2541.76683
3.97832751,2359.5702
3.98000799,2192.10749
3.98168847,2038.5123
3.98336895,1897.82154
3.98504943,1769.03893
3.9867299,1651.17795
