energy [eV],cross section [b]
1e-05,495.169481
1.09464803e-05,473.278373
1.15774671e-05,460.200574
1.2208454e-05,448.150232
1.33141921e-05,429.137629
1.4499559e-05,411.222301
1.56849259e-05,395.378335
1.71694732e-05,377.898945
1.81591715e-05,367.456717
1.96437188e-05,353.299004
2.08832116e-05,342.653895
2.27424509e-05,328.349048
2.39819437e-05,319.751253
2.53778573e-05,310.832933
2.69301916e-05,301.741361
2.84825259e-05,293.40356
3.00348602e-05,285.720819
3.17830951e-05,277.751666
3.46992981e-05,265.824216
3.66434334e-05,258.676447
3.85875687e-05,252.075907
4.2239806e-05,240.931863
4.58920434e-05,231.146142
4.98515492e-05,221.776834
5.2900911e-05,215.2901
5.59502729e-05,209.341174
6.05243157e-05,201.275542
6.43433205e-05,195.211038
7.00718277e-05,187.061589
7.38908324e-05,182.16344
7.81917856e-05,177.08269
8.53661378e-05,169.478322
9.01490394e-05,164.92125
9.49319409e-05,160.713066
0.000103917062,153.608167
0.000112902183,147.369271
0.000122643236,141.395864
0.000133896155,135.324028
0.000145149073,129.972747
0.000153597745,126.347706
0.000162993142,122.652245
0.000177086238,117.670702
0.000192365008,112.901143
0.000204131754,109.598997
0.0002158985,106.57063
0.000227665246,103.78019
0.000240916925,100.885725
0.000255653536,97.9350348
0.000277758452,93.9574567
0.000292495063,91.5600942
0.000310951117,88.8014793
0.000338635198,85.094473
0.000366319279,81.8160774
0.000400990677,78.199294
0.000424104942,76.038625
0.00045877634,73.1091684
0.000487724524,70.9065321
0.0005311468,67.9466495
0.000560094984,66.1676456
0.000592696353,64.3223257
0.000628950906,62.4411634
0.00066520546,60.7159718
0.000701460014,59.1263251
0.000742289797,57.4774223
0.000810397315,55.0095178
0.000855802327,53.530583
0.00090120734,52.1648803
0.000986504838,49.8591052
0.00107180234,47.8343916
0.00116427605,45.8958516
0.00127110219,43.9253856
0.00137792832,42.1887738
0.0014581332,41.0123753
0.00154732553,39.8131327
0.00168111402,38.1965488
0.00177030635,37.2222114
0.00188201036,36.1010625
0.00199371436,35.0755204
0.00210541837,34.1327273
0.00221712237,33.2621231
0.00235701988,32.2603401
0.00256686614,30.9141708
0.0027767124,29.7236687
0.00303952276,28.4103115
0.00330233311,27.2570649
0.00358725412,26.152921
0.00380668232,25.3884976
0.00413582463,24.3580677
0.0044926582,23.3715176
0.00476746893,22.6885112
0.00504227966,22.0621484
0.00545449576,21.2129448
0.00579866727,20.5744562
0.00614283878,19.9904282
0.0064870103,19.4535363
0.00683118181,18.9577647
0.0074777397,18.120766
0.0079087783,17.620767
0.00833981689,17.1600693
0.00909516666,16.4332377
0.00990491236,15.7484049
0.0107146581,15.1427991
0.0113907389,14.6874798
0.0124048602,14.0756732
0.0134189814,13.534656
0.0142657015,13.1279045
0.0151124216,12.7558655
0.0159591417,12.4138698
0.0168058618,12.0980829
0.0178662896,11.7347436
0.0189267174,11.4024188
0.0199871452,11.0969367
0.0221106797,10.5527415
0.0242368932,10.0812845
0.0258299349,9.76694291
0.0271915063,9.52050669
0.029686416,9.1138354
0.0321813257,8.75551147
0.0350960369,8.38639544
0.0371791114,8.14969417
0.0403037232,7.82975111
0.0426496763,7.61307525
0.0452585079,7.39224414
0.0491717553,7.0946554
0.0517805868,6.91535126
0.0550478738,6.70908822
0.0583151608,6.52047413
0.0615824478,6.34713402
0.0668957013,6.09296606
0.0730336008,5.8347592
0.0771255339,5.68010458
0.0812174669,5.53734997
0.08890454,5.29647407
0.0965916132,5.08512623
0.104916788,4.88313722
0.111317705,4.74360785
0.117718623,4.61570608
0.12732,4.44240164
0.135427073,4.3107845
0.147484191,4.1356843
0.155522269,4.03055844
0.164574731,3.92161623
0.179675002,3.75877992
0.189741849,3.66133649
0.199808695,3.57145667
0.218720195,3.41995921
0.231327861,3.32962268
0.243935527,3.24650823
0.266029134,3.11564531
0.289713797,2.9926818
0.313398459,2.88425962
0.333173489,2.80296635
0.35294852,2.72879797
0.382611067,2.62885197
0.402863937,2.56726247
0.43396,2.4815392
0.46276158,2.4102893
0.491563161,2.34567653
0.52258015,2.28244995
0.55359714,2.2248995
0.615631119,2.12390816
0.678115559,2.03748522
0.755806588,1.94656
0.795338136,1.90598323
0.843988054,1.86044213
0.916962931,1.79988048
1.00642642,1.73608763
1.08776211,1.6862102
1.16880634,1.64282959
1.24546634,1.60668697
1.35388,1.56239658
1.4342183,1.53397096
1.5145566,1.50876676
1.62402915,1.47894866
1.71959568,1.45666051
1.83774704,1.43332044
2.04382,1.40220998
2.2738,1.37972559
2.4780054,1.36912996
2.58044,1.36686811
2.73376,1.36713513
2.9311162,1.37382112
3.11706,1.38670895
3.34704,1.41190689
3.46203,1.42861024
3.57702,1.44826799
3.72606522,1.47849723
3.807,1.4973431
3.96032,1.53821596
4.03698,1.56141993
4.1903,1.61403691
4.34362,1.67603594
4.42028,1.71104767
4.5736,1.7903142
4.66650449,1.84514825
4.76525,1.90990521
4.88024,1.99491419
4.9569,2.05812133
5.07189,2.16424986
5.14855,2.24360504
5.22521,2.33084204
5.30187,2.42697781
5.37853,2.53320387
5.41686,2.59052978
5.45519,2.65092337
5.53185,2.78179775
5.57018,2.85277209
5.64684,3.00720852
5.7235,3.18051349
5.80016,3.37584033
5.86056285,3.54774693
5.91515,3.71877733
5.972645,3.91723685
6.010975,4.06127072
6.049305,4.21574176
6.1068,4.46930836
6.14513,4.65467499
6.18346,4.85470723
6.240955,5.18578982
6.279285,5.42993563
6.317615,5.69536835
6.33678,5.83685066
6.37511,6.13912293
6.394275,6.30070551
6.432605,6.64698252
6.45177,6.83267242
6.4901,7.23195692
6.52843,7.67275217
6.56676,8.16103897
6.585925,8.42516034
6.624255,8.99841901
6.6530025,9.47237082
6.6721675,9.81179564
6.6913325,10.1717594
6.72008,10.753976
6.739245,11.1731099
6.75841,11.6195585
6.7871575,12.345846
6.8063225,12.8718489
6.8254875,13.4349883
6.854235,14.3573042
6.8734,15.0299893
6.892565,15.7544812
6.9213125,16.9505345
6.9404775,17.8301587
6.9596425,18.7842866
6.9788075,19.8215977
6.9979725,20.952074
7.0171375,22.1872413
7.0363025,23.5404653
7.0554675,25.0273148
7.0746325,26.6660125
7.0937975,28.4779957
7.107213,29.862885
7.118712,31.1349104
7.1359605,33.2064602
7.145543,34.4508649
7.157042,36.0416716
7.164708,37.1660611
7.18004,39.583393
7.187706,40.8839283
7.203038,43.6902116
7.210704,45.2056938
7.226036,48.4890433
7.237535,51.1975715
7.249034,54.1444596
7.260533,57.3584846
7.272032,60.872889
7.283531,64.7262346
7.291197,67.505322
7.298863,70.4700084
7.306529,73.6371528
7.314195,77.0255651
7.31937773,79.4522525
7.32636886,82.9137819
7.33336,86.6090594
7.341026,90.9552455
7.352525,98.1205515
7.360191,103.382273
7.367857,109.08191
7.375523,115.269158
7.3812725,120.263509
7.390855,129.34255
7.398521,137.369476
7.406187,146.169014
7.413853,155.842706
7.421519,166.509163
7.425352,172.257258
7.4311015,181.452659
7.4349345,187.996887
7.440684,198.494829
7.444517,205.987303
7.44930825,215.961323
7.4540995,226.672755
7.459849,240.603872
7.463682,250.610764
7.4694315,266.821156
7.4732645,278.507855
7.479014,297.512721
7.48380525,314.854741
7.48955475,337.709527
7.49530425,363.099108
7.498179,376.860193
7.50105375,391.402212
7.5039285,406.783706
7.50680325,423.068618
7.509678,440.32688
7.51255275,458.63507
7.5154275,478.077146
7.51830225,498.745277
7.521177,520.740768
7.52501,552.327188
7.52788475,577.873266
7.53171775,614.676241
7.5345925,644.538787
7.5384255,687.706352
7.54130025,722.85415
7.54513325,773.842866
7.54896625,830.104555
7.55279925,892.334933
7.55663225,961.335393
7.55854875,998.657666
7.5614235,1058.52581
7.56334,1101.23154
7.5652565,1146.34844
7.567173,1194.03958
7.57004775,1270.78772
7.57196425,1325.70343
7.57388075,1383.85636
7.57579725,1445.46388
7.578672,1544.85932
7.5805885,1616.13732
7.58346325,1731.22633
7.586338,1856.94308
7.58921275,1994.24263
7.5920875,2144.088
7.59496225,2307.40808
7.597837,2485.03542
7.5997535,2611.73304
7.60167,2745.20606
7.6047364,2972.9244
7.6085694,3281.33937
7.6108692,3477.9536
7.613169,3681.83275
7.6223682,4524.93217
7.6254346,4789.62246
7.6277344,4971.31201
7.6292676,5081.41344
7.6308008,5180.80513
7.632334,5267.92711
7.6338672,5341.33228
7.6354004,5399.74193
7.6369336,5442.09837
7.6384668,5467.61109
7.64,5475.79279
7.6415332,5466.48212
7.6430664,5439.85149
7.6445996,5396.39894
7.6461328,5336.92498
7.647666,5262.49634
7.6491992,5174.39957
7.6507324,5074.08822
7.6522656,4963.12727
7.6545654,4780.26864
7.6576318,4514.25186
7.6660644,3738.09028
7.6691308,3464.47544
7.6721972,3203.88182
7.6737304,3079.37165
7.6767968,2842.96281
7.67833,2731.27066
7.68120475,2533.65868
7.68312125,2410.3756
7.685996,2237.74509
7.68887075,2079.19908
7.6917455,1933.85448
7.69462025,1800.75707
7.697495,1678.93614
7.70036975,1567.4407
7.7032445,1465.36249
7.70611925,1371.84925
7.708994,1286.11135
7.71186875,1207.42394
7.7147435,1135.12607
7.71666,1090.17866
7.71953475,1027.22585
7.72145125,988.017486
7.724326,933.001444
7.7262425,898.671444
7.7300755,835.130717
7.731992,805.71263
7.735825,751.114761
7.739658,701.618569
7.743491,656.640726
7.747324,615.673822
7.751157,578.275771
7.75499,544.060689
7.758823,512.691068
7.762656,483.871088
7.766489,457.340901
7.770322,432.871742
7.774155,410.26176
7.7799045,379.447895
7.7837375,360.748578
7.7875705,343.366847
7.79332,319.509822
7.7990695,298.00754
7.804819,278.565841
7.8105685,260.934239
7.816318,244.89852
7.8220675,230.274731
7.8259005,221.230707
7.83165,208.61838
7.8373995,197.040829
7.843149,186.389309
7.846982,179.755342
7.854648,167.496106
7.858481,161.826537
7.866147,151.309825
7.873813,141.776842
7.877646,137.341724
7.885312,129.068807
7.892978,121.515954
7.896811,117.983942
7.904477,111.363673
7.912143,105.281996
7.919809,99.6824613
7.927475,94.5157808
7.935141,89.7387673
7.942807,85.3134569
7.950473,81.2063733
7.958139,77.3879088
7.965805,73.8318029
7.977304,68.9391778
7.98497,65.9422343
7.992636,63.1362858
8.004135,59.251349
8.011801,56.8571816
8.019467,54.605266
8.030966,51.4703541
8.042465,48.5981712
8.053964,45.9602944
8.069296,42.7653858
8.076962,41.2918438
8.092294,38.5652553
8.09996,37.3026102
8.115292,34.9574518
8.122958,33.867457
8.134457,32.3262715
8.1440395,31.1215116
8.1555385,29.7633673
8.168954,28.2892894
8.1862025,26.5511475
8.2053675,24.8033094
8.2245325,23.2245848
8.2436975,21.793927
8.2628625,20.4934572
8.2820275,19.3079095
8.3011925,18.2241873
8.3203575,17.2310033
8.32994,16.765258
8.349105,15.8899732
8.36827,15.0831423
8.3970175,13.986335
8.425765,13.008261
8.4545125,12.1324556
8.48326,11.3452067
8.5120075,10.6350207
8.540755,9.99220634
8.5695025,9.40854596
8.59825,8.87703517
8.6269975,8.39167422
8.655745,7.94730019
8.67491,7.67159247
8.71324,7.16425401
8.732405,6.9305788
8.770735,6.49874664
8.809065,6.10915551
8.82823,5.92851116
8.86656,5.59260293
8.90489,5.28714968
8.924055,5.14471485
8.962385,4.87845444
9.000715,4.634695
9.039045,4.41099179
9.077375,4.20522252
9.1316451,3.94099911
9.1732,3.75768514
9.21153,3.60155923
9.269025,3.38809295
9.307355,3.25812547
9.345685,3.13700288
9.384015,3.0239508
9.422345,2.91827759
9.460675,2.81936396
9.499005,2.72665411
9.537335,2.63964807
9.59483,2.51885983
9.67149,2.37391738
9.74815,2.24495501
9.82481,2.12975294
9.90147,2.02646332
9.97813,1.93353807
10.05479,1.84967243
10.13145,1.77376064
10.20811,1.70486062
10.28477,1.64216588
10.36143,1.58498276
10.43809,1.53271211
10.51475,1.48483425
10.59141,1.44089674
10.66807,1.40050419
10.74473,1.36330992
10.82139,1.32900892
10.93638,1.28240213
11.0897,1.22812214
11.24302,1.18146105
11.39634,1.14121108
11.5360373,1.10929423
11.70298,1.07623806
11.81797,1.05627475
12.04795,1.02220955
12.27793,0.994756419
12.46958,0.976096298
12.6229,0.963546194
12.85288,0.948172955
13.15952,0.933209943
13.31284,0.927787223
13.61948,0.920519234
13.7728,0.918503091
14.07944,0.91736799
14.5394,0.922169673
14.99936,0.933973568
15.306,0.94547061
15.61264,0.959789238
15.911614,0.976464377
16.218254,0.996401669
16.68588,1.03258007
17.084512,1.06933414
17.29916,1.09157423
17.5379579,1.11849346
17.869466,1.15998384
18.1460593,1.19863086
18.3530761,1.2302011
18.6636012,1.28226086
18.870618,1.32042972
19.1811431,1.38353452
19.3881599,1.42995778
19.5951766,1.48028464
19.9057018,1.5640315
20.1127185,1.62609987
20.4232437,1.73006601
20.7078917,1.83870605
20.9407856,1.93876687
21.1736794,2.0505733
21.328942,2.13256894
21.4842046,2.221299
21.6394671,2.31752916
21.7947297,2.42213931
21.9241152,2.51644361
22.0793778,2.63916911
22.1828861,2.72739354
22.3381487,2.87046536
22.4934113,3.02798125
22.6260914,3.17556425
22.7521822,3.32832786
22.9074448,3.53542491
23.0109532,3.68661891
23.1662157,3.93592212
23.2697241,4.11906114
23.4249867,4.42307991
23.4767409,4.53314514
23.5802493,4.76793399
23.6320035,4.8932508
23.7355118,5.16138739
23.8131431,5.37928197
23.8907744,5.61315098
23.9684057,5.86461351
24.046037,6.13549991
24.1236683,6.42788576
24.2012995,6.74413241
24.2789308,7.08693564
24.3565621,7.45938411
24.4083163,7.72588541
24.4859476,8.15590447
24.5377018,8.46471546
24.6023945,8.87828051
24.6670873,9.32558716
24.73178,9.81043721
24.7964727,10.3371845
24.8611655,10.9108343
24.9258582,11.5371634
24.9905509,12.222868
25.0552437,12.975745
25.0940593,13.4634456
25.132875,13.980818
25.1975677,14.9158675
25.2363834,15.5251659
25.275199,16.1745702
25.3140146,16.8676952
25.3528303,17.6085732
25.3916459,18.4017125
25.4304616,19.2521669
25.4563387,19.8537547
25.4951543,20.8127096
25.5210314,21.4927269
25.559847,22.5795276
25.5857241,23.3522755
25.6245398,24.5907828
25.6633554,25.9341288
25.7021711,27.3945247
25.7409867,28.9860134
25.7798023,30.7248099
25.818618,32.629717
25.8574336,34.7226371
25.8962493,37.0292063
25.9350649,39.5795841
25.9738806,42.4094469
25.9997577,44.4719294
26.0256347,46.6918889
26.0644504,50.3537223
26.0773889,51.6723326
26.103266,54.4727554
26.1162046,55.9606276
26.1420817,59.1284722
26.1679588,62.5777166
26.1938359,66.3427241
26.2132437,69.3973916
26.2391208,73.8145197
26.2585286,77.4139037
26.2844057,82.6429279
26.3102828,88.4268656
26.3335722,94.1738025
26.3594493,101.248932
26.3749755,105.887312
26.3853264,109.160507
26.3956772,112.589145
26.4112035,118.045636
26.4215543,121.908396
26.4370806,128.07066
26.4474314,132.443933
26.4629577,139.438942
26.4784839,147.006612
26.4940102,155.211078
26.504361,161.070291
26.5198873,170.504349
26.5354135,180.795834
26.5509398,192.05159
26.566466,204.395573
26.5819923,217.972234
26.5975185,232.950706
26.6130448,249.530016
26.6285711,267.945623
26.6440973,288.477676
26.6596236,311.461523
26.6699744,328.3424
26.6803253,346.630904
26.6906761,366.486929
26.6984392,382.516783
26.7062023,399.61789
26.7165532,424.254753
26.726904,451.230574
26.7372549,480.848271
26.7476057,513.460902
26.7527811,531.016814
26.7605442,559.074795
26.7708951,600.049988
26.7812459,645.654687
26.7864213,670.411215
26.7915968,696.603333
26.7967722,724.342577
26.8045353,769.123338
26.8097107,801.292843
26.8174739,853.409763
26.8226493,890.986295
26.8304124,952.098738
26.8355878,996.337099
26.8433509,1068.58889
26.8485264,1121.11958
26.8562895,1207.31335
26.8614649,1270.28106
26.8640526,1303.58185
26.869228,1374.12714
26.8718158,1411.50719
26.8769912,1490.85333
26.8795789,1532.98223
26.8847543,1622.59873
26.887342,1670.28287
26.8925174,1771.944
26.8951051,1826.15944
26.9002806,1942.01821
26.9028683,2003.95229
26.9080437,2136.63416
26.9132191,2282.27607
26.9183945,2442.51496
26.9235699,2619.23233
26.9274515,2763.87506
26.9313331,2920.03086
26.9365085,3148.15101
26.9390962,3271.60397
26.9416839,3401.8794
26.9442716,3539.43591
26.9468593,3684.76492
26.949447,3838.39255
26.9520347,4000.88143
26.9546225,4172.83237
26.9572102,4354.88574
26.9597979,4547.72254
26.9623856,4752.06498
26.9649733,4968.67622
26.967561,5198.35937
26.9701487,5441.95504
26.9740303,5835.35428
26.976618,6117.61296
26.9804996,6573.29908
26.9843811,7070.49251
26.9882627,7612.1243
26.9921442,8200.73399
26.994732,8620.18475
26.9970609,9016.4971
27.0001661,9572.61498
27.0022363,9960.65844
27.0063766,10776.1561
27.0125872,12083.6745
27.0239731,14583.0756
27.0281134,15438.9544
27.0312187,16026.9158
27.0332888,16383.4832
27.035359,16705.6219
27.0374292,16988.2893
27.0394993,17226.8035
27.0415695,17417.0219
27.0436397,17555.5118
27.0457098,17639.7
27.04778,17667.9893
27.0498502,17639.8338
27.0519203,17555.7641
27.0539905,17417.3628
27.0560607,17227.1906
27.0581308,16988.6699
27.060201,16705.9359
27.0622712,16383.6663
27.0643413,16026.9024
27.0674466,15438.5277
27.0715869,14581.903
27.0829728,12079.7895
27.0871132,11197.0883
27.0912535,10356.1598
27.0933237,9954.29637
27.097464,9191.1555
27.100828,8612.36107
27.1047096,7990.73751
27.1072973,7603.32277
27.109885,7236.84162
27.1124727,6890.5606
27.1163543,6407.18608
27.1202359,5964.36965
27.1241174,5558.98837
27.127999,5187.94733
27.1318806,4848.26705
27.1357621,4537.13604
27.1396437,4251.93882
27.1435253,3990.26723
27.1474068,3749.92059
27.1512884,3528.89884
27.1538761,3391.38554
27.1577577,3198.63601
27.1603454,3078.49129
27.1642269,2909.77205
27.1668146,2804.40529
27.1719901,2609.19505
27.1745778,2518.72783
27.1797532,2350.6664
27.1849286,2198.11532
27.1875163,2127.09786
27.1926917,1994.59051
27.1978672,1873.61751
27.2030426,1762.93231
27.208218,1661.44457
27.2133934,1568.19854
27.2185688,1482.35468
27.2237442,1403.17381
27.2289197,1330.00371
27.2340951,1262.26757
27.2418582,1169.74945
27.2470336,1113.48433
27.2522091,1061.098
27.2599722,989.055339
27.2651476,944.951509
27.270323,903.680608
27.2780861,846.582263
27.2858493,794.64623
27.2936124,747.277808
27.3013755,703.964246
27.3091387,664.261764
27.3169018,627.784873
27.3220772,605.091196
27.332428,563.205889
27.3376035,543.858156
27.3479543,508.009012
27.3531297,491.386439
27.3634806,460.477118
27.3738314,432.371079
27.3790068,419.265448
27.3893577,394.767177
27.3971208,377.765451
27.4048839,361.831289
27.4152347,342.097443
27.4255856,323.92531
27.4359364,307.155381
27.4462873,291.647881
27.4566381,277.279935
27.4669889,263.943179
27.4773398,251.54177
27.4876906,239.990689
27.4980415,229.214319
27.5083923,219.145229
27.5187431,209.723137
27.529094,200.894022
27.5394448,192.609363
27.5549711,181.108875
27.5653219,174.003499
27.5756727,167.307372
27.591199,157.964111
27.6015498,152.162807
27.6119007,146.674925
27.6274269,138.982959
27.6481286,129.633205
27.6584794,125.308124
27.6791811,117.282944
27.689532,113.556523
27.7102336,106.617737
27.7205845,103.384689
27.7361107,98.8044037
27.751637,94.5223876
27.7671632,90.513367
27.7852772,86.1511152
27.8111543,80.4477891
27.8370314,75.2944047
27.8629085,70.6226455
27.8887856,66.374466
27.9146627,62.5002956
27.9405398,58.9575978
27.9664169,55.7097069
27.992294,52.7248831
28.0052325,51.3223566
28.0311096,48.6815303
28.0569867,46.2412352
28.0958023,42.9142541
28.1216794,40.8939924
28.1475565,39.014805
28.1863722,36.4329391
28.2251878,34.1026268
28.2667898,31.8485582
28.3028191,30.0752594
28.3416348,28.3286307
28.3804504,26.7328853
28.419266,25.2711967
28.4580817,23.9290176
28.4968973,22.6937198
28.5486515,21.1940983
28.5745286,20.5011288
28.6262828,19.216617
28.6521599,18.6207581
28.6909755,17.7795458
28.7297912,16.9963018
28.7556683,16.5037647
28.8074225,15.5835874
28.8332996,15.1534616
28.8850537,14.3475706
28.9368079,13.6076188
28.9885621,12.9266605
29.0661934,12.0027999
29.1179476,11.4444585
29.1697018,10.9269919
29.221456,10.4465494
29.2732102,9.9997231
29.3249644,9.58348837
29.3767185,9.19515319
29.4284727,8.83231527
29.4802269,8.49282552
29.5319811,8.17475664
29.5837353,7.87637629
29.6354895,7.59612392
29.6872437,7.33259071
29.7389979,7.08450225
29.8425063,6.63014549
29.9460146,6.22501976
29.9977688,6.03878871
30.1012772,5.6953547
30.2047856,5.38646432
30.308294,5.10781001
30.3600482,4.97865759
30.4635565,4.73868038
30.5411878,4.5733321
30.6188191,4.41933668
30.7223275,4.23004327
30.8258359,4.05727313
30.9293442,3.89930533
31.0846068,3.68688173
31.2398694,3.50014392
31.395132,3.3355599
31.5503945,3.19020265
31.6539029,3.1027569
31.7574113,3.02214061
31.9126739,2.91282306
32.1196906,2.78626266
32.3008303,2.69123763
32.4560929,2.62004568
32.6113554,2.55733083
32.8442493,2.47743089
32.9995118,2.43264203
33.2324057,2.37679164
33.3876683,2.34644218
33.5685147,2.31743835
33.7749449,2.29205789
34.0029057,2.27287937
34.276605,2.26120854
34.5503044,2.26110238
34.8240038,2.27194467
34.9608534,2.28134454
35.2345528,2.30796756
35.5086811,2.34506009
35.6451018,2.36744559
