energy [eV],cross section [b]
1e-05,201.419062
1.08776283e-05,193.122766
1.17552566e-05,185.773829
1.27013499e-05,178.721031
1.34233654e-05,173.848081
1.4145381e-05,169.353155
1.52284043e-05,163.220021
1.61193962e-05,158.644951
1.7455884e-05,152.450808
1.9342129e-05,144.826668
2.04416435e-05,140.877872
2.1541158e-05,137.235408
2.38688489e-05,130.372199
2.59041066e-05,125.145847
2.79393643e-05,120.501517
3.02921686e-05,115.727246
3.28037462e-05,111.208788
3.53153238e-05,107.18136
3.73815723e-05,104.177061
4.0480945e-05,100.10957
4.35803177e-05,96.4841018
4.6130139e-05,93.7796487
4.86799603e-05,91.2905671
5.25046922e-05,87.9026561
5.53528862e-05,85.6112728
5.84994529e-05,83.277029
6.47925863e-05,79.1295215
7.02488406e-05,75.9944156
7.41318115e-05,73.9773889
7.80147824e-05,72.1128896
8.42936129e-05,69.3751743
9.14811913e-05,66.5940761
9.86687698e-05,64.1226895
0.000106977774,61.5821578
0.00011289092,59.9476612
0.000121760637,57.7229336
0.000128365721,56.2182593
0.000135662745,54.68544
0.00014660828,52.6044988
0.000153905303,51.3423127
0.00016291008,49.9031943
0.000171914856,48.5786814
0.000180919633,47.3543284
0.00019548051,45.5565645
0.000212148813,43.7303129
0.000234373218,41.6053474
0.000254942474,39.8916759
0.000275511731,38.3736905
0.000297685624,36.9168758
0.000314607734,35.9103276
0.000331529845,34.9818637
0.000356913011,33.7150153
0.000377795475,32.769998
0.00040911917,31.4905492
0.000453327702,29.9157247
0.000479097377,29.1000716
0.000504867051,28.3476939
0.000559421892,26.9300492
0.000607122882,25.8505104
0.000670724201,24.5943962
0.000729588854,23.5814081
0.000788453507,22.6840952
0.000851910274,21.8229424
0.000900337604,21.2279519
0.000972978599,20.4201995
0.00105128642,19.6449983
0.0011110474,19.109394
0.00117080838,18.6153405
0.00126044986,17.9412269
0.00133419695,17.4383665
0.00140794405,16.9755526
0.00155543824,16.1507215
0.0016919479,15.4855412
0.00187396078,14.7143717
0.00203176906,14.1314463
0.00220022665,13.5797573
0.00236868424,13.0880235
0.00250727252,12.7212115
0.00271515495,12.2245906
0.00292303738,11.7819408
0.00309406006,11.4517435
0.00326508275,11.1478432
0.00352161677,10.7342041
0.00371265204,10.4544446
0.00392369988,10.1694536
0.00434579557,9.66308308
0.00458153962,9.41125073
0.00484197988,9.15470952
0.00536286039,8.69888912
0.00581447271,8.35433834
0.00629656099,8.02825314
0.00677864927,7.73760794
0.0073735627,7.41901838
0.00796847613,7.13681322
0.0086097996,6.86598443
0.00909922861,6.67886506
0.00958865763,6.50626388
0.0103228012,6.27076075
0.0109267733,6.09508804
0.0115307455,5.93340776
0.0127386898,5.64526565
0.013484012,5.48713644
0.0142293343,5.34160285
0.0157199789,5.08223838
0.0170996087,4.87308261
0.0184792385,4.68781727
0.0199664952,4.51002425
0.0211015021,4.38718704
0.0228040125,4.22043058
0.0246195097,4.06203401
0.0263603922,3.92579234
0.0284811767,3.77701458
0.0304057861,3.65570903
0.0321342205,3.55619622
0.0338626549,3.46440742
0.0375217802,3.29146919
0.0396547274,3.20190571
0.0417876746,3.11929489
0.0463031603,2.96365137
0.050251355,2.84514184
0.0555156146,2.70726485
0.060387822,2.5960894
0.0652600293,2.49762198
0.0705123244,2.40313522
0.0745206381,2.33786015
0.0805331086,2.24925511
0.0870146204,2.16423476
0.0919610166,2.10550117
0.101853809,2.00116324
0.107379018,1.94928346
0.11348304,1.89644151
0.125691085,1.80257424
0.132509382,1.75590309
0.140041954,1.70836815
0.151340812,1.64385145
0.158873384,1.60472913
0.168168836,1.56013282
0.182112013,1.4997732
0.196055191,1.44599338
0.213261549,1.38706693
0.224732454,1.35161491
0.241938812,1.303261
0.256094302,1.2672065
0.277327536,1.21841625
0.30729495,1.15840424
0.324763308,1.12734265
0.342231667,1.09870458
0.37921248,1.04478449
0.411547308,1.00376416
0.454660412,0.956084603
0.494562695,0.917678831
0.54776574,0.873212021
0.59389369,0.839647571
0.643134473,0.807925287
0.692375256,0.77969086
0.732885129,0.758656912
0.773395003,0.739321156
0.834159814,0.713042423
0.879410035,0.695297367
0.929400605,0.677246315
1.00438646,0.652786634
1.05437703,0.63797934
1.14691214,0.613224686
1.23944725,0.591360453
1.37726498,0.563081395
1.52952031,0.536523575
1.65262004,0.517877784
1.74656417,0.505042414
1.88748038,0.487687149
2.03938966,0.471116634
2.21328508,0.454381693
2.32921536,0.444336137
2.5166766,0.429669356
2.65973853,0.419600431
2.87433143,0.406026941
3.19393668,0.388597556
3.54702331,0.372387502
3.94142712,0.357182705
4.3771481,0.343120889
4.84375645,0.330517566
5.34125215,0.319251663
5.67039779,0.312792111
6.33393132,0.301697586
6.66569809,0.296955658
7.34373243,0.288616465
7.92627775,0.282660643
8.39883325,0.27851163
9.14033884,0.273037624
9.64556668,0.269930551
10.6560224,0.264980212
11.2794908,0.26264594
12.5264277,0.25934906
13.5489221,0.257809717
14.746,0.257140474
15.4867108,0.257271855
16.7180662,0.258325732
17.6993554,0.259860298
19.03,0.26286406
20.0251934,0.265778097
21.046,0.269347853
22.138,0.273814702
23.23,0.278957626
24.7117737,0.287045823
25.792,0.293780095
26.674,0.299828649
28.27,0.312110526
29.11,0.319313158
30.4951741,0.332400655
31.63,0.344341489
32.89,0.359019318
33.73,0.369713175
34.99,0.387259753
36.25,0.406814228
37.6320881,0.430889364
38.77,0.453061125
40.03,0.480451883
41.29,0.511274046
42.55,0.546085426
43.81,0.58556783
44.23,0.599906447
45.07,0.630561147
45.754642,0.657680874
46.439284,0.686929445
47.065,0.715712953
47.695,0.746875942
48.325,0.780452032
48.955,0.816694674
49.585,0.855891939
49.9,0.876699458
50.53,0.92095918
51.16,0.969086469
51.79,1.02154503
52.21,1.05918499
52.84,1.12009537
53.26,1.16396663
53.89,1.23525115
54.52,1.31391735
55.15,1.40102521
55.78,1.49783328
56.41,1.60584505
56.83,1.68495539
57.0688325,1.73275288
57.3076651,1.78274614
57.67,1.8630944
57.88,1.91232699
58.3,2.0171956
58.72,2.13145524
59.14,2.25626871
59.35,2.32304652
59.77,2.46628867
60.19,2.62389078
60.61,2.79785069
61.03,2.99052737
61.345,3.14898364
61.66,3.32091061
61.975,3.50788859
62.2375,3.67650554
62.5525,3.89600687
62.8675,4.13649302
63.1825,4.40074167
63.484375,4.67928375
63.8059375,5.00706656
64.1324219,5.37751665
64.298125,5.58191601
64.4621875,5.7963066
64.62625,6.02362044
64.796875,6.27488132
64.9675,6.5425987
65.138125,6.82824791
65.30875,7.1334737
65.4925,7.48618475
65.62375,7.75474733
65.78125,8.0969634
65.93875,8.46283256
66.09625,8.85459417
66.25375,9.27475938
66.41125,9.72615175
66.56875,10.211955
66.7525,10.827047
66.91,11.4004097
67.09375,12.1298412
67.25125,12.8132156
67.435,13.6872829
67.61875,14.6553746
67.8025,15.7315143
67.88125,16.2298304
67.98625,16.9324427
68.09125,17.6822939
68.19625,18.4837247
68.275,19.1215443
68.38,20.0252617
68.45875,20.7462595
68.56375,21.7704755
68.6425,22.5897967
68.7475,23.756965
68.8525,25.0179492
68.9575,26.3830946
69.0625,27.8642129
69.1675,29.4748386
69.2725,31.2305389
69.3775,33.149292
69.4825,35.251948
69.5875,37.5627977
69.6925,40.110276
69.745,41.4829814
69.82375,43.6789154
69.871,45.0817426
69.934,47.0604329
69.997,49.1730721
70.06,51.4320255
70.123,53.8511169
70.186,56.4458394
70.249,59.233603
70.312,62.2340257
70.375,65.4692771
70.438,68.964487
70.501,72.7482306
70.564,76.8531103
70.627,81.3164539
70.7048096,87.3881805
70.774,93.3784117
70.816,97.3204557
70.858,101.517778
70.921,108.342216
70.963,113.281585
71.005,118.566608
71.068,127.215271
71.11,133.517216
71.152,140.298705
71.194,147.609409
71.236,155.50556
71.278,164.051012
71.32,173.318506
71.362,183.391188
71.404,194.364428
71.446,206.34802
71.467,212.757603
71.509,226.50088
71.551,241.611165
71.572,249.735754
71.6035,262.707126
71.6245,271.91981
71.656,286.666589
71.677,297.168192
71.7085,314.025377
71.7295,326.064563
71.761,345.448759
71.7925,366.592045
71.824,389.71034
71.845,406.341387
71.8765,433.325061
71.908,463.041189
71.9395,495.863381
71.971,532.229673
72.0025,572.655915
72.034,617.752365
72.0445,633.943931
72.0655,668.244399
72.076,686.419196
72.097,724.998418
72.118,766.818579
72.139,812.238848
72.1495,836.424391
72.1705,888.026952
72.1915,944.357886
72.2125,1005.98334
72.2335,1073.55118
72.2545,1147.80418
72.2755,1229.59542
72.2965,1319.90612
72.3175,1419.86608
72.328,1473.86387
72.34375,1560.38662
72.35425,1622.0402
72.36475,1687.12024
72.37525,1755.85752
72.391,1866.3662
72.4015,1945.36613
72.41725,2072.5874
72.42775,2163.67684
72.4435,2310.57619
72.454,2415.88604
72.46975,2585.89131
72.4855,2771.58826
72.50125,2974.44187
72.517,3195.96025
72.5275,3354.75236
72.538,3522.93765
72.55375,3793.68993
72.56425,3986.99985
72.57475,4190.85162
72.5842,4383.44503
72.5968,4653.67407
72.6136,5037.22701
72.622,5238.38584
72.6388,5657.15874
72.6976,7192.82554
72.7144,7599.05536
72.727,7874.07233
72.7354,8038.53881
72.7438,8184.9776
72.7522,8311.02305
72.7606,8414.53064
72.769,8493.66239
72.7774,8546.96496
72.79,8576.428
72.7984,8561.85783
72.8068,8520.16035
72.8152,8452.1187
72.8236,8358.98942
72.832,8242.44552
72.8404,8104.50371
72.8488,7947.44161
72.8572,7773.71074
72.8698,7487.42121
72.8866,7070.95546
72.9328,5855.89082
72.9496,5427.5556
72.9664,5019.59757
72.9832,4636.25798
73.0,4279.69312
73.01575,3970.29917
73.0315,3684.64474
73.04725,3421.83069
73.05775,3258.70652
73.06825,3104.76642
73.07875,2959.56981
73.08925,2822.66665
73.09975,2693.60653
73.11025,2571.94551
73.12075,2457.25115
73.13125,2349.10609
73.14175,2247.11044
73.15225,2150.88329
73.168,2016.57411
73.1785,1933.23234
73.189,1854.48276
73.20475,1744.33527
73.21525,1675.82939
73.22575,1610.97344
73.2415,1520.03292
73.2625,1409.52873
73.273,1358.45915
73.294,1263.84406
73.3045,1219.99621
73.3255,1138.53997
73.336,1100.687
73.357,1030.18079
73.3675,997.329207
73.3885,935.981821
73.4095,879.912802
73.42,853.678279
73.441,804.489949
73.462,759.29638
73.4725,738.068484
73.4935,698.119546
73.5145,661.23722
73.525,643.851772
73.546,611.022921
73.567,580.580129
73.588,552.303269
73.609,525.996375
73.63,501.484618
73.651,478.6117
73.672,457.237606
73.693,437.236655
73.714,418.495812
73.735,400.913226
73.756,384.396953
73.777,368.863839
73.798,354.238555
73.8295,333.854986
73.8505,321.21362
73.8715,309.266622
73.903,292.541411
73.945,272.24577
73.987,253.966249
74.029,237.447029
74.05,229.778433
74.092,215.503285
74.113,208.854096
74.155,196.437464
74.176,190.636084
74.2075,182.399556
74.239,174.680414
74.281,165.120846
74.302,160.629954
74.344,152.176029
74.386,144.366656
74.407,140.683525
74.449,133.72434
74.512,124.20777
74.554,118.412403
74.617,110.44561
74.659,105.569509
74.701,101.006899
74.743,96.731598
74.806,90.8065616
74.848,87.1517148
74.89,83.7115559
74.932,80.4696642
74.974,77.4111542
75.016,74.5225069
75.058,71.7914223
75.1,69.2066904
75.184,64.436227
75.268,60.1392453
75.352,56.2553043
75.436,52.7332846
75.52,49.5297184
75.583,47.3134761
75.646,45.2416697
75.709,43.3020549
75.7825,41.1916655
75.835,39.7766068
75.94,37.1552466
75.9925,35.9399704
76.0975,33.6804068
76.15,32.6291039
76.255,30.667873
76.36,28.8769864
76.4125,28.0393414
76.5175,26.4689592
76.6225,25.0258806
76.7275,23.6967469
76.8325,22.4699039
76.9375,21.3351481
77.0425,20.2835149
77.1475,19.307103
77.2525,18.3989266
77.3575,17.5527913
77.4625,16.7631888
77.5675,16.0252079
77.6725,15.3344584
77.7775,14.6870067
77.935,13.7893806
78.04,13.2354749
78.145,12.7139541
78.3025,11.9870596
78.4075,11.5362004
78.5125,11.1100412
78.67,10.5132951
78.88,9.78885732
78.985,9.45409241
79.195,8.83354334
79.3,8.54567179
79.4575,8.13924705
79.615,7.76080456
79.825,7.29545901
79.93,7.07813339
80.14,6.671281
80.245,6.48071723
80.455,6.12298571
80.665,5.79370198
80.77,5.63879869
80.98,5.34681705
81.295,4.94905461
81.505,4.70770414
81.82,4.37703575
82.03,4.17529881
82.24,3.98698913
82.45,3.81094683
82.765,3.56764479
82.975,3.41796255
83.185,3.27735728
83.395,3.14511355
83.605,3.02058489
83.815,2.903186
84.025,2.79238589
84.235,2.68770199
84.445,2.58869494
84.655,2.49496406
84.97,2.36346838
85.39,2.20344328
85.81,2.05885752
86.23,1.92779917
86.44,1.86682501
86.86,1.75308522
87.1702146,1.67549361
87.5902146,1.57823534
87.91,1.50964054
88.33,1.42600672
88.54,1.38671854
88.96,1.31276285
89.17,1.27793736
89.59,1.21223297
89.8,1.18122405
90.43,1.09487091
91.06,1.01746098
91.69,0.947810702
92.11,0.905190221
92.74,0.846339395
93.16,0.810166745
93.58,0.776212227
94.105,0.736621965
94.735,0.692898054
95.05,0.672447744
95.68,0.63411127
95.995,0.616131977
96.625,0.582341455
96.94,0.566454495
97.57,0.536525854
97.885,0.52242209
98.83,0.483219783
99.67,0.451880896
100.51,0.423427115
101.35,0.397519106
102.19,0.373865737
103.03,0.352216116
103.87,0.332353111
104.29,0.323031645
105.13,0.305502508
105.97,0.289332405
106.81,0.274386422
107.23,0.267334818
107.694695,0.259838353
108.606174,0.246003705
109.75,0.23012275
111.01,0.214314614
112.27,0.200054263
113.53,0.187149363
114.79,0.175436359
116.05,0.164775479
117.31,0.155046716
118.507,0.146573342
119.347,0.141031742
120.229,0.135542343
121.51,0.128120365
122.35,0.123578592
123.442,0.118026233
124.534,0.112840267
125.71,0.107629948
127.39,0.100794713
129.112,0.0944497103
129.973,0.0915028805
131.350234,0.0870733708
132.898938,0.0824745084
134.770586,0.0774001348
136.642234,0.0727957721
138.415,0.0688189818
139.99,0.0655666182
141.4495,0.0627663174
142.909,0.0601536755
144.3685,0.0577132139
145.828,0.0554310333
147.7495,0.0526468869
150.1175,0.0495262596
151.845,0.0474440508
153.23375,0.0458782696
156.01125,0.0430088892
157.4,0.0416940379
159.050459,0.0402262184
160.700918,0.0388543376
162.351377,0.0375716847
165.413877,0.0354079718
168.237959,0.033638253
170.875,0.0321616628
173.325,0.0309292196
175.977125,0.0297354349
179.45,0.0283781218
181.9,0.0275540218
184.11725,0.0269006882
186.8,0.0262272382
189.228563,0.0257304008
191.7,0.0253404967
194.052,0.0250868583
196.11,0.0249695269
198.0945,0.024961707
199.6625,0.0250395931
200.814,0.0251508841
202.383875,0.0253875234
203.404875,0.025601582
205.175,0.0261062901
206.4,0.0265736864
207.00025,0.0268443101
207.925125,0.0273226698
208.85,0.0278857372
210.022938,0.0287439496
210.874313,0.0294868523
211.60625,0.0302210854
212.427,0.0311672919
213.19875,0.0321959344
213.9705,0.0333840629
214.723875,0.0347267463
215.465,0.0362583935
216.1265,0.0378365633
216.445,0.0386787126
216.935,0.0400934612
217.4495,0.0417548424
217.915,0.04343686
218.16,0.0443991675
218.65,0.0465041427
218.895,0.0476566772
219.385,0.0501905046
219.63,0.0515851583
219.9975,0.0538585462
220.2425,0.055508149
220.4875,0.0572768184
220.855,0.0601787428
221.1,0.0622988568
221.4675,0.0657963157
221.835,0.0697302259
222.2025,0.0741756227
222.4475,0.0774679456
222.57,0.0792244314
222.815,0.0829805563
222.9375,0.0849902457
223.1825,0.0893010299
223.48875,0.0953030925
223.6725,0.0992765525
223.85625,0.103565214
224.04,0.108203226
224.315625,0.115901888
224.499375,0.121595966
224.683125,0.127802192
224.8975,0.135774979
225.02,0.140727182
225.1425,0.145998597
225.32625,0.154566372
225.44875,0.160765374
225.57125,0.167396359
225.755,0.178244004
225.8775,0.186145791
226.0,0.194646883
226.1225,0.203809446
226.245,0.213703922
226.3675,0.224410395
226.49,0.236020211
226.6125,0.248637937
226.735,0.262383727
226.8575,0.277396196
226.98,0.293835927
227.04125,0.302648249
227.16375,0.321588899
227.225,0.331776289
227.3475,0.353752185
227.40875,0.365616373
227.53125,0.391312574
227.623125,0.412502265
227.715,0.43554918
227.806875,0.460676942
227.89875,0.488143875
227.990625,0.518249678
228.051875,0.539956404
228.113125,0.563107735
228.205,0.600834297
228.26625,0.628204676
228.3275,0.657550028
228.38875,0.689065079
228.45,0.722969158
228.51125,0.759510025
228.5725,0.798968413
228.603125,0.81988973
228.664375,0.864336455
228.695,0.887959032
228.75625,0.938271813
228.786875,0.965081494
228.848125,1.0223399
228.909375,1.084954
228.970625,1.15361319
229.00125,1.19045584
229.0625,1.26973219
229.12375,1.35733159
229.185,1.45446114
229.24625,1.5625549
229.276875,1.62123636
229.3075,1.68332708
229.338125,1.74909628
229.36875,1.81884032
229.399375,1.89288597
229.445312,2.01282018
229.475937,2.09928539
229.506563,2.19149638
229.537188,2.28997352
229.567813,2.39529744
229.598437,2.50811753
229.629063,2.62916204
229.659688,2.75924972
229.690313,2.89930377
229.720937,3.05036815
229.751563,3.21362708
229.782188,3.39042819
229.7975,3.48437963
229.828125,3.6844482
229.85875,3.90233992
229.889375,4.14023415
229.92,4.40065339
229.935313,4.54020815
229.965937,4.84006351
229.996563,5.17072969
230.011875,5.34895122
230.0425,5.73425897
230.05475,5.90014957
230.076188,6.20832726
230.094562,6.49214343
230.116,6.84859981
230.12825,7.0656422
230.15275,7.53189204
230.17725,8.0458918
230.20175,8.61437452
230.22625,9.24529973
230.244625,9.76509835
230.263,10.3299645
230.27525,10.7341879
230.2875,11.1625806
230.29975,11.6171017
230.312,12.0999123
230.32425,12.6134005
230.3365,13.160211
230.34875,13.7432785
230.361,14.3658666
230.37325,15.0316125
230.3855,15.7445799
230.39775,16.5093196
230.413063,17.5458927
230.425313,18.4467895
230.439094,19.5453886
230.452875,20.7446143
230.468187,22.2104829
230.481969,23.6659468
230.497281,25.4562647
230.504938,26.4280331
230.512594,27.4561013
230.52025,28.5448642
230.527906,29.6991497
230.535562,30.9242703
230.543219,32.2260826
230.550875,33.6110541
230.560063,35.3929188
230.567719,36.9871296
230.576906,39.0448424
230.586094,41.2770026
230.595281,43.7036125
230.604469,46.3475785
230.613656,49.2352226
230.622844,52.3968999
230.632031,55.8677468
230.641219,59.6885928
230.645813,61.7448508
230.651938,64.6525996
230.656531,66.9674838
230.662656,70.2481177
230.66725,72.8657179
230.673375,76.5840177
230.677969,79.5579298
230.684094,83.7928958
230.688688,87.1886909
230.694813,92.0372953
230.700938,97.2886442
230.707063,102.986899
230.713188,109.182161
230.719313,115.931396
230.725437,123.299521
230.731562,131.360671
230.737687,140.199684
230.74075,144.940748
230.745344,152.491854
230.748406,157.840357
230.753,166.37486
230.756063,172.431236
230.760656,182.113701
230.763719,188.997766
230.768313,200.024607
230.771375,207.879386
230.775969,220.485005
230.779031,229.481071
230.783625,243.944654
230.788219,259.678275
230.792812,276.813243
230.797406,295.493792
230.802,315.877391
230.806594,338.13453
230.811188,362.447692
230.815781,389.009109
230.820375,418.016771
230.824969,449.667955
230.828031,472.3304
230.831094,496.30113
230.834156,521.622729
230.83875,562.204605
230.842425,596.9411
230.8461,633.671862
230.849775,672.313136
230.85345,712.706421
230.85835,768.839725
230.871825,927.955881
230.876725,982.433337
230.8804,1019.85276
230.88285,1042.54293
230.8853,1063.03981
230.88775,1081.0226
230.8902,1096.19355
230.89265,1108.28934
230.8951,1117.09194
230.89755,1122.43809
230.9,1124.22668
230.90245,1122.42356
230.9049,1117.06305
230.90735,1108.2464
230.9098,1096.13703
230.91225,1080.9531
230.9147,1062.95803
230.91715,1042.44968
230.9196,1019.74888
230.923275,982.315241
230.928175,927.822062
230.94165,768.680157
230.949,685.428192
230.9539,633.505591
230.95635,608.799558
230.960025,573.393409
230.962781,548.162274
230.965844,521.458801
230.970438,483.987684
230.975031,449.508987
230.979625,417.86084
230.984219,388.856435
230.987281,370.89156
230.991875,345.854173
230.994937,330.351621
230.998,315.735059
231.001063,301.950925
231.004125,288.948049
231.007188,276.677807
231.01025,265.094187
231.013313,254.153805
231.016375,243.815864
231.019438,234.042092
231.0225,224.796648
231.025563,216.04602
231.028625,207.758906
231.031688,199.906096
231.037813,185.396281
231.043937,172.320155
231.050062,160.507217
231.053125,155.027407
231.05925,144.837986
231.062313,140.098464
231.068438,131.262421
231.0715,127.141616
231.077625,119.439631
231.080688,115.838658
231.086813,109.091979
231.089875,105.930067
231.096,99.992352
231.099063,97.2032151
231.105187,91.9540763
231.10825,89.483048
231.114375,84.822951
231.117437,82.6247185
231.123562,78.4709545
231.13275,72.7912653
231.138875,69.3334656
231.148063,64.5823078
231.154188,61.6761028
231.163375,57.6650675
231.1695,55.2009906
231.175625,52.8890592
231.18175,50.7172013
231.187875,48.6744992
231.194,46.7510619
231.200125,44.937913
231.20625,43.2268929
231.212375,41.6105724
231.2185,40.082177
231.23075,37.2649407
231.243,34.7317158
