energy [eV],cross section [b]
1e-05,1068.99287
1.06491198e-05,1035.9003
1.16227995e-05,991.561038
1.25964793e-05,952.467685
1.34141417e-05,922.982364
1.42318041e-05,896.076066
1.50494666e-05,871.393493
1.5867129e-05,848.6443
1.68970958e-05,822.37302
1.79270626e-05,798.399638
1.89570294e-05,776.407583
2.0635694e-05,744.158403
2.25817873e-05,711.370409
2.45278806e-05,682.566488
2.68108399e-05,652.859592
2.84451015e-05,633.827786
3.08964939e-05,608.163632
3.27429218e-05,590.767167
3.48015161e-05,573.028217
3.78894074e-05,549.181904
3.99480017e-05,534.844604
4.25411056e-05,518.287568
4.51342096e-05,503.178744
4.77273136e-05,489.31862
5.19536165e-05,468.994114
5.68532136e-05,448.330032
6.01196116e-05,435.98073
6.33860097e-05,424.598747
6.95577769e-05,405.324297
7.57295442e-05,388.456939
8.24354737e-05,372.321883
8.76183096e-05,361.142213
9.28011455e-05,350.912696
0.000100575399,337.077648
0.000107103948,326.642862
0.000113632496,317.120788
0.000120161045,308.385686
0.000126689593,300.334804
0.000134913266,291.037466
0.000143136939,282.553349
0.000151360611,274.770421
0.000159584284,267.597129
0.000175122682,255.449752
0.00019066108,244.819405
0.000207544316,234.650581
0.000220592923,227.604799
0.000240165835,218.133222
0.000261432768,209.072859
0.000277869419,202.79511
0.00029430607,197.050905
0.000318961047,189.28208
0.000339665441,183.422614
0.000360369835,178.075667
0.000381074228,173.170632
0.000401778622,168.649809
0.000440898992,160.994174
0.000466979239,156.434026
0.000493059485,152.240657
0.000538951537,145.614952
0.00058822943,139.382425
0.000637507323,133.887294
0.000678889187,129.742714
0.000740961983,124.189583
0.000803034779,119.293468
0.000855161358,115.600683
0.000907287937,112.230904
0.000959414516,109.139631
0.00101154109,106.2905
0.00107720223,103.000265
0.00114286337,99.9978258
0.00120852451,97.2435336
0.00127418564,94.7049889
0.00135689556,91.7734258
0.00148096043,87.8455651
0.00160502531,84.3824326
0.00176130337,80.5522513
0.00191758143,77.200416
0.00208738525,73.9941149
0.00221862214,71.772539
0.00241547747,68.7861069
0.00254671436,66.9905593
0.00271202664,64.9170285
0.00287733891,63.0248737
0.00304265119,61.2891072
0.00320796347,59.6893099
0.00341619873,57.8418369
0.003624434,56.1559679
0.00383266927,54.6094394
0.0041720561,52.3416239
0.00456551078,50.0359402
0.00495896546,48.0104413
0.00542052661,45.9214682
0.00591614098,43.9564795
0.00641175536,42.2239971
0.00682795511,40.9173251
0.00724415486,39.7249583
0.00786845448,38.1170883
0.00833868693,37.0272082
0.00886295208,35.915886
0.00938721723,34.8990283
0.00991148238,33.9639697
0.0105038097,32.9929455
0.0111641992,32.0028209
0.0121547835,30.6718338
0.0132311021,29.3986665
0.0144788896,28.1042667
0.015726677,26.9671871
0.0171904547,25.7945029
0.0182383032,25.0432444
0.0198100761,24.0302166
0.0215755003,23.0271654
0.0228170002,22.3926671
0.0240585001,21.807958
0.0256136814,21.136401
0.0272763162,20.4829816
0.028938951,19.8867418
0.0306015859,19.3398035
0.0322642207,18.835729
0.0354057224,17.9821739
0.0385472242,17.2352772
0.0419606208,16.5208693
0.045917807,15.7945961
0.0498749932,15.1566396
0.0545171628,14.4987587
0.0578402704,14.0773305
0.0628249318,13.5091023
0.0665794584,13.1239736
0.070765404,12.7313043
0.0770443223,12.2035159
0.0812302679,11.8862345
0.0865030856,11.519877
0.0917759033,11.1856115
0.097048721,10.8790155
0.105642486,10.4295059
0.115605326,9.97260007
0.125568167,9.57132116
0.137255562,9.15758365
0.149805234,8.76852547
0.162354906,8.42561541
0.172893684,8.16706482
0.183432463,7.93119738
0.199240631,7.61324758
0.217785171,7.28548545
0.231060322,7.07559694
0.244335473,6.88312622
0.257610623,6.70579745
0.282693648,6.40566546
0.299415664,6.22699509
0.31613768,6.06277303
0.345562541,5.80346355
0.37715832,5.55975431
0.4087541,5.34507494
0.448553658,5.10788676
0.475086697,4.96674184
0.514886255,4.77603442
0.548308542,4.63235494
0.598441973,4.44008554
0.648575404,4.27082281
0.690675719,4.14334184
0.732776034,4.02716378
0.774876348,3.92072852
0.816976663,3.82276144
0.870008238,3.70979899
0.949555599,3.55876966
1.02910296,3.42595962
1.14910914,3.25291948
1.26950836,3.10521271
1.3804533,2.98707723
1.46459918,2.90686647
1.590818,2.79912639
1.73888513,2.68859353
1.84487932,2.61813934
2.0038706,2.52364438
2.12362538,2.45996932
2.25714073,2.39539812
2.39065609,2.33666864
2.52417145,2.2829964
2.71307485,2.21446775
2.95736628,2.13662477
3.26365851,2.05289004
3.58143432,1.97895847
3.89921014,1.91550852
4.32577371,1.84339182
4.75519977,1.78276201
5.17848907,1.73232443
5.51463506,1.69769102
6.01885404,1.65319134
6.52307302,1.61614207
6.8603136,1.59487312
7.19942905,1.57596276
7.87765996,1.54461788
8.48374491,1.52287789
9.15059683,1.50476095
9.55047926,1.49647279
10.3502441,1.48503956
11.1137154,1.47988243
11.5863156,1.47925909
12.531516,1.48347135
13.7297902,1.49862678
14.894517,1.52341456
15.3671172,1.53627239
16.3123176,1.56690797
17.4033051,1.6107045
18.0845683,1.64288708
18.7934686,1.68057641
19.8568191,1.74577614
21.0111517,1.82962845
21.6593972,1.88341036
22.2198201,1.93420845
22.9287204,2.00472421
23.4013206,2.05597086
23.8739208,2.11091046
24.8191212,2.23308401
25.5280215,2.33687141
26.0583732,2.42228021
26.709522,2.53737381
27.1821222,2.6287763
27.6547224,2.72754884
28.3636227,2.8912356
29.072523,3.07632506
29.6632732,3.24960664
30.0177234,3.36303626
30.4903236,3.52666971
30.8447737,3.65966608
31.2582989,3.82722084
31.6718241,4.00961245
32.1148868,4.22354491
32.5470937,4.45310094
32.9567059,4.69223787
33.3849998,4.96784468
33.8132938,5.27332078
34.2415877,5.61317087
34.6846504,6.00666584
34.891413,6.20684308
35.1277131,6.44995978
35.3344757,6.67629101
35.5707757,6.95190195
35.8070758,7.24725666
36.0433759,7.56430411
36.279676,7.90524132
36.5159762,8.27255233
36.6932012,8.56702417
36.9295013,8.98749988
37.1067264,9.32567614
37.3430265,9.81019788
37.5202516,10.2012618
37.7565517,10.763659
37.9337767,11.219351
38.1700769,11.8774159
38.3473019,12.4129397
38.583602,13.1898745
38.8199021,14.0479302
39.0562022,14.9988974
39.2925023,16.0567958
39.5288024,17.238401
39.6469525,17.8817521
39.7651025,18.5639208
39.8832526,19.2881135
40.0014026,20.0578754
40.1195527,20.8771341
40.2377027,21.7502507
40.3558528,22.6820783
40.4740028,23.6780299
40.5921529,24.7441584
40.7103029,25.8872489
40.828453,27.1149282
40.946603,28.4357929
41.0647531,29.8595615
41.2354925,32.1215573
41.3601282,33.945307
41.4782783,35.8266313
41.5964283,37.8742251
41.7441159,40.6986853
41.8031909,41.9203006
41.8918034,43.8615411
41.9508784,45.2337009
42.039491,47.4192565
42.098566,48.9678204
42.1871785,51.440584
42.2462536,53.1972108
42.3289586,55.8153855
42.3998486,58.2200914
42.4707387,60.787106
42.5416287,63.5313928
42.6361487,67.4953949
42.7070388,70.7218978
42.7779288,74.1898041
42.8488188,77.9238252
42.9433389,83.3653174
43.0142289,87.8355623
43.1087489,94.3865202
43.156009,97.9442157
43.203269,101.709599
43.250529,105.69914
43.297789,109.930972
43.368679,116.777329
43.4159391,121.707048
43.4631991,126.958842
43.5104591,132.56133
43.5577191,138.546371
43.6049791,144.949512
43.6522392,151.810506
43.6994992,159.173924
43.7467592,167.089871
43.7940192,175.614822
43.8649093,189.686079
43.9121693,200.031891
43.9594293,211.250634
44.0185043,226.656029
44.0775793,243.81278
44.1248394,258.981445
44.1484694,267.102023
44.1957294,284.531008
44.2193594,293.891155
44.2548044,308.819497
44.2784344,319.410692
44.3138795,336.344965
44.3375095,348.390414
44.3729545,367.702333
44.4083995,388.655258
44.4438445,411.437994
44.4792895,436.266866
44.5147345,463.390577
44.5501795,493.096092
44.5856246,525.715763
44.6210696,561.636018
44.6565146,601.307995
44.6919596,645.260614
44.7155896,677.243636
44.7392196,711.615386
44.7746646,768.178865
44.7982947,809.625738
44.8219247,854.429285
44.8455547,902.949285
44.8691847,955.592964
44.8928147,1012.82229
44.9164447,1075.16249
44.9400747,1143.21207
44.9637047,1217.65445
44.9873347,1299.27166
44.9991497,1343.04606
45.0227797,1437.14742
45.0464098,1540.92126
45.0582248,1596.82523
45.0759473,1686.19414
45.0877623,1749.72959
45.1054848,1851.49316
45.1172998,1923.97763
45.1350223,2040.29489
45.1468373,2123.29929
45.1645598,2256.74105
45.1822823,2401.88677
45.2000048,2559.94484
45.2177273,2732.2422
45.2354498,2920.22696
45.2531723,3125.46624
45.2708949,3349.63634
45.2886174,3594.5017
45.3063399,3861.87755
45.3240624,4153.56973
45.3358774,4362.38991
45.3476924,4583.2338
45.3595074,4816.487
45.3772299,5190.23007
45.3866819,5401.39362
45.4055859,5848.14523
45.4150379,6083.32246
45.4339419,6575.25851
45.4528459,7091.32563
45.504832,8551.915
45.51901,8929.933
45.533188,9282.70027
45.547366,9600.03707
45.556818,9786.81065
45.56627,9950.3104
45.575722,10087.8149
45.585174,10196.9246
45.594626,10275.6608
45.604078,10322.5523
45.6130574,10336.7793
45.627708,10296.0966
45.63716,10228.5414
45.646612,10129.9765
45.656064,10002.1937
45.665516,9847.44232
45.674968,9668.3339
45.68442,9467.73897
45.698598,9133.19359
45.717502,8640.37413
45.7836661,6785.10102
45.8025701,6280.49319
45.8120221,6038.24839
45.8309261,5576.58961
45.8451041,5251.50076
45.8557376,5019.88752
45.8675526,4774.80277
45.8793676,4542.45392
45.8970901,4217.11997
45.9089051,4015.08467
45.9207201,3824.37066
45.9384426,3558.38041
45.9561651,3314.86249
45.9738877,3091.99096
45.9916102,2887.99506
46.0034252,2761.65043
46.0211477,2585.43624
46.0329627,2476.18547
46.0506852,2323.62045
46.0625002,2228.89596
46.0802227,2096.40853
46.0920377,2014.01099
46.1038527,1936.00538
46.1156677,1862.11409
46.1333902,1758.42995
46.1452052,1693.72977
46.1688352,1573.97461
46.1924652,1465.79982
46.2160953,1367.84781
46.2397253,1278.9398
46.2633553,1198.0511
46.2869853,1124.2897
46.3106153,1056.87769
46.3342453,995.13535
46.3460603,966.201361
46.3696903,911.870872
46.3933203,861.8558
46.4169503,815.725127
46.4287653,793.9958
46.4523954,752.992603
46.4642104,733.639675
46.4996554,679.748006
46.5351004,631.450702
46.5705454,588.015859
46.6059904,548.824896
46.6414354,513.35261
46.6768804,481.151112
46.7005105,461.308813
46.7359555,433.733126
46.7595855,416.67882
46.7950305,392.895471
46.8186605,378.137018
46.8541055,357.489766
46.8895505,338.466506
46.9368106,315.347921
46.9840706,294.492486
47.0313306,275.617139
47.0785906,258.48132
47.1258506,242.879603
47.1731107,228.635769
47.2203707,215.597997
47.2676307,203.634952
47.3148907,192.632577
47.3621507,182.491453
47.4094108,173.124619
47.4566708,164.455749
47.5039308,156.417645
47.5748208,145.415231
47.6220808,138.70898
47.6693409,132.453509
47.7402309,123.830758
47.8111209,116.019352
47.882011,108.921148
47.952901,102.452348
48.023791,96.5410621
48.094681,91.1253424
48.1655711,86.1515816
48.2600911,80.1277689
48.3073511,77.3495959
48.4018712,72.2091711
48.4491312,69.8288146
48.5436512,65.4078897
48.5909113,63.3532099
48.6618013,60.448143
48.7208763,58.1773362
48.7917663,55.6175538
48.8981014,52.0839782
48.9808064,49.5639467
49.0989565,46.2705348
49.2171065,43.2961486
49.3352566,40.6010882
49.4534066,38.1516287
49.5715567,35.9189749
49.6306317,34.8760896
49.7487817,32.9234131
49.8669318,31.1320061
49.9850819,29.4847001
50.0441569,28.7103366
50.1623069,27.2517556
50.2213819,26.5644853
50.398607,24.654387
50.5758321,22.9469835
50.7530572,21.4148046
50.9302822,20.0348736
51.0484323,19.1898245
51.2256574,18.0221611
51.4028824,16.9615177
51.5801075,15.9953549
51.6982576,15.3983597
51.8754826,14.5665051
51.9936327,14.0507291
52.2299328,13.1024331
52.4662329,12.2525696
52.5843829,11.8604268
52.820683,11.1346405
52.9388331,10.798505
53.1160582,10.3246206
53.2932833,9.8841634
53.4114333,9.60760867
53.6477334,9.09192287
53.8840335,8.62144623
54.1203336,8.19122934
54.3566337,7.79698548
54.5929338,7.43498731
54.8292339,7.10198186
55.065534,6.79512026
55.3018341,6.51189927
55.5381342,6.25011252
55.7744343,6.0078095
56.0107344,5.78326112
56.2470345,5.57493047
56.6014847,5.28988754
56.8377847,5.11642478
57.0740848,4.95498783
57.3103849,4.8046457
57.546685,4.66456079
57.9011352,4.47203464
58.3737354,4.24478061
58.8463356,4.04712544
59.3189358,3.87538087
59.5552359,3.7982512
60.0278361,3.65982594
60.2641362,3.59795656
60.7367364,3.48765593
61.2093366,3.39385869
61.6819368,3.31512515
62.154537,3.25026965
62.6271372,3.19832479
63.0997374,3.15851319
63.5723376,3.13022554
64.0449378,3.11300362
64.706441,3.10689874
65.27315,3.11807274
65.7556177,3.13949305
66.4337125,3.18840625
66.962257,3.24226131
67.4908015,3.31057277
68.019346,3.39420004
68.5478905,3.49425476
69.076435,3.61213557
69.6049795,3.74957384
69.8692518,3.82627335
70.2392329,3.94333749
70.714923,4.11187587
71.0320497,4.23656844
71.2963219,4.34869328
71.8248664,4.59759994
72.0362842,4.70723223
72.4591198,4.94573124
72.8819554,5.21267419
73.0933732,5.35800543
73.5162088,5.67516858
73.7276266,5.84827231
74.0447533,6.12810975
74.36188,6.43465622
74.6790067,6.77111186
74.8904245,7.01384044
75.2075512,7.40868736
75.5246779,7.84475393
75.8418046,8.3276649
76.0532224,8.67885769
76.3703491,9.25517818
76.6874758,9.8988996
77.0046025,10.6205985
77.3217292,11.4330177
77.4274381,11.7265653
77.6388559,12.3516172
77.7974193,12.8564811
77.9559826,13.3952924
78.0616915,13.7748541
78.2731093,14.5873244
78.3788182,15.0224445
78.590236,15.956646
78.8016538,16.9855766
79.0130716,18.1222651
79.171635,19.0546177
79.3830528,20.4184203
79.5416161,21.5430331
79.647325,22.346737
79.7530339,23.1974832
79.9115972,24.5699549
80.0173062,25.5552097
80.1230151,26.6020636
80.228724,27.7156613
80.3344329,28.9016861
80.4401418,30.166427
80.5458507,31.5168562
80.6515596,32.9607176
80.7572684,34.5066286
80.8629774,36.1641982
80.9686863,37.9441617
81.0743952,39.8585386
81.1801041,41.9208139
81.285813,44.1461493
81.3386674,45.3252209
81.4443763,47.827858
81.5500852,50.5405113
81.6029397,51.9827423
81.7086486,55.0549834
81.8143575,58.401434
81.8672119,60.1873456
81.9729208,64.0066709
82.0786297,68.1891844
82.1314842,70.4304138
82.2371931,75.2438785
82.2900475,77.8298926
82.3957564,83.3987485
82.4486109,86.3985893
82.5543198,92.8763557
82.6405469,98.6809387
82.7128831,103.951679
82.7921648,110.191732
82.8450192,114.644384
82.8978737,119.349592
82.9771554,126.918606
83.0300098,132.332446
83.0828643,138.06378
83.1621459,147.303072
83.2150004,153.924209
83.2678548,160.943006
83.3471365,172.273251
83.399991,180.40079
83.4528454,189.020142
83.5056999,198.159843
83.5585543,207.84854
83.6114088,218.114464
83.6642632,228.98473
83.7171177,240.484449
83.7963993,258.961123
83.875681,278.955661
83.9602481,301.973473
84.0025317,314.124587
84.0870988,339.635288
84.2139495,380.451542
84.4465091,458.047241
84.5310762,484.414614
84.5945015,502.426097
84.6367851,513.290243
84.6790686,523.050341
84.7213522,531.551169
84.7636358,538.649757
84.8059193,544.220937
84.8482029,548.162565
84.8904864,550.400016
84.9348842,550.867879
84.9750536,549.620695
85.0173371,546.61613
85.0596207,541.93127
85.1019042,535.651385
85.1441878,527.887839
85.1864714,518.773286
85.2287549,508.45629
85.2710385,497.095725
85.3344638,478.456436
85.3978892,458.384852
85.6515905,373.220458
85.7361576,345.75231
85.8207248,319.630471
85.8630083,307.161146
85.9475754,283.503359
86.0162862,265.577253
86.0955679,246.338972
86.1484224,234.355879
86.2012768,223.024691
86.2541313,212.321749
86.3334129,197.387048
86.3862674,188.135733
86.4391218,179.414628
86.5184035,167.263657
86.571258,159.74205
86.6241124,152.651666
86.7033941,142.767578
86.7826758,133.711607
86.8619574,125.406837
86.9412391,117.782901
87.0205208,110.775795
87.0998024,104.327553
87.1526569,100.313141
87.2319386,94.6826032
87.3112203,89.4826367
87.4169292,83.1513687
87.5226381,77.4328686
87.5754925,74.7805546
87.6812014,69.8494293
87.7869103,65.3687042
87.8397648,63.281164
87.9454736,59.3832429
88.0511826,55.8211587
88.1568915,52.5589404
88.2626003,49.5650953
88.3683093,46.8119913
88.4740182,44.2753297
88.5797271,41.9336952
88.6854359,39.7681711
88.7911449,37.7620101
88.8968538,35.9003531
89.0025627,34.1699866
89.1082716,32.5591359
89.2139805,31.0572857
89.3725438,28.9885718
89.4782527,27.7201502
89.5839616,26.5318004
89.742525,24.8854125
89.8482338,23.8702569
89.9539428,22.915103
90.1125061,21.5850099
90.2710694,20.3660728
90.4296328,19.2464102
90.6410506,17.8902456
90.7467595,17.2647841
90.9581773,16.1075779
91.0638862,15.5717765
91.275304,14.5768167
91.3810129,14.1144861
91.5924307,13.2530779
91.8038485,12.4678005
91.9095574,12.1009633
92.1209752,11.4140646
92.332393,10.7838593
92.4381019,10.4881024
92.6495197,9.93188836
92.8609375,9.41872128
93.0723553,8.94430123
93.389482,8.29717816
93.6008998,7.90405121
93.8123176,7.53826687
94.0237354,7.19736135
94.2351532,6.87914082
94.446571,6.58164683
94.6579888,6.30312678
94.8694066,6.0420086
95.0808244,5.79687901
95.2922422,5.56646472
95.50366,5.34961616
95.7150778,5.14529345
95.9264956,4.95255404
96.1379134,4.77054209
96.4550401,4.51595424
96.7721668,4.28142413
97.1950024,3.99641943
97.617838,3.73929966
97.8292558,3.62007711
98.2520914,3.39837114
98.5692181,3.24540199
98.8334904,3.12581806
99.150617,2.99100117
99.5205982,2.84466462
99.732016,2.76591597
100.26056,2.58307692
100.524833,2.49853948
101.053377,2.3417518
101.581922,2.19964594
102.110466,2.07045009
102.639011,1.95265187
103.167555,1.84495413
103.6961,1.74623933
104.32786,1.63869042
104.787594,1.56681178
105.281733,1.49493897
105.810278,1.42366287
106.338822,1.35762687
106.867367,1.29633532
107.395911,1.2393503
107.924456,1.1862838
108.453,1.13679112
109.245817,1.06859055
110.038634,1.00684642
110.843209,0.950002707
111.23673,0.924125891
111.905717,0.882781158
112.69276,0.838044907
113.597859,0.791276668
114.404578,0.753367104
115.565466,0.704349744
116.352509,0.674450174
117.139551,0.646985905
117.926594,0.621772208
118.713637,0.598655138
119.50068,0.577510016
120.287723,0.558241041
121.074765,0.540782208
122.25533,0.517924283
123.435894,0.499122971
124.222937,0.488981958
125.10836,0.480114286
125.698642,0.47589111
126.288924,0.473227193
126.977586,0.472434339
127.567869,0.47415208
128.158151,0.478621544
128.748433,0.486575252
129.141954,0.494318165
129.535475,0.504499374
129.732236,0.510674188
130.125758,0.525628027
130.322518,0.534624724
130.519279,0.544810668
130.71604,0.556346975
130.9128,0.569424098
131.109561,0.584268443
131.306322,0.601150816
131.503083,0.620397258
131.699843,0.642403108
131.896604,0.667651439
131.994984,0.68167233
132.191745,0.712944087
132.290125,0.73040121
132.437696,0.759203504
132.536076,0.780356881
132.683647,0.815429704
132.782027,0.841323636
132.929598,0.88450563
133.027978,0.916583414
133.175548,0.970443839
133.273929,1.01074556
133.372309,1.0550989
133.421499,1.07896224
133.51988,1.13044704
133.56907,1.15824252
133.66745,1.21843355
133.71664,1.25105387
133.815021,1.32198647
133.913401,1.40151384
133.962591,1.44493481
134.060972,1.54012024
134.110162,1.59236266
134.183947,1.67731323
134.233137,1.73880262
134.306922,1.83923325
134.356113,1.91226395
134.429898,2.03213933
134.479088,2.11976372
134.552873,2.26440347
134.602064,2.37075329
134.675849,2.54742736
134.700444,2.61141806
134.749634,2.74795459
134.774229,2.82084205
134.823419,2.97680844
134.872609,3.14781175
134.897205,3.2395613
134.946395,3.43695278
134.97099,3.54322455
135.02018,3.77270276
135.054613,3.94819652
135.098884,4.1941433
135.128398,4.37222368
135.162832,4.59589725
135.202184,4.87488621
135.241536,5.18199275
135.280888,5.52111264
135.32024,5.89683867
135.359592,6.31461539
135.398944,6.78093537
135.41862,7.0346749
135.438297,7.30358998
135.457973,7.58891047
135.477649,7.89199293
135.497325,8.21433653
135.517001,8.55760141
135.536677,8.92362968
135.566191,9.51989797
135.585867,9.95231926
135.605543,10.4157738
135.625219,10.9132872
135.654733,11.7309755
135.674409,12.3294835
135.684247,12.6464293
135.703923,13.3188738
135.7236,14.0474542
135.733438,14.4347546
135.753114,15.2597839
135.77279,16.1586834
135.782628,16.6385988
135.802304,17.6656301
135.812142,18.2155452
135.831818,19.3960122
135.841656,20.0300802
135.861332,21.3957805
135.87117,22.1318749
135.890846,23.7231786
135.905603,25.0322806
135.92036,26.452849
135.935117,27.9977201
135.949874,29.6816021
