energy [eV],cross section [b]
1e-05,7941.5345
1.05774094e-05,7721.72742
1.14435234e-05,7423.75767
1.26650225e-05,7056.67384
1.37311775e-05,6777.17308
1.51527175e-05,6451.43696
1.64651156e-05,6188.97373
1.77775138e-05,5956.13909
1.91909508e-05,5732.59625
2.08064653e-05,5505.53591
2.24219799e-05,5303.47988
2.36233647e-05,5166.85647
2.49491246e-05,5027.69499
2.69377644e-05,4838.54473
2.90795055e-05,4656.94279
3.07114679e-05,4531.51339
3.39753927e-05,4308.33634
3.57958171e-05,4197.34577
3.78047036e-05,4084.29323
4.08180334e-05,3930.63045
4.282692e-05,3837.32672
4.52997864e-05,3731.10804
4.90090862e-05,3587.11792
5.27183859e-05,3458.60494
5.72843994e-05,3317.8858
6.18504129e-05,3193.05147
6.67679543e-05,3073.19846
7.0515019e-05,2990.41776
7.61356161e-05,2877.90064
8.21889312e-05,2769.8732
8.68014321e-05,2695.26015
9.60264337e-05,2562.50014
0.000101171595,2496.47547
0.000106849416,2429.22391
0.000118205059,2309.56207
0.000128033162,2219.12252
0.000135022354,2160.90669
0.000142011546,2107.04281
0.000153302459,2027.93816
0.000166207623,1947.58775
0.000179112786,1876.08471
0.000194005033,1802.60858
0.000204595558,1755.31183
0.000220481347,1690.86185
0.000232294886,1647.28231
0.000245331439,1602.8926
0.000264886268,1542.55641
0.000277922821,1505.91979
0.000293970345,1464.21136
0.000310017869,1425.78407
0.000326065393,1390.22905
0.000342112918,1357.20536
0.000361866838,1319.60987
0.000391497719,1268.6441
0.000421128599,1223.15508
0.000457603139,1173.3438
0.000494077679,1129.15367
0.000533360318,1086.72518
0.000563292875,1057.41939
0.000608191712,1017.58483
0.000656547216,979.337887
0.000693393109,952.920069
0.000730239002,928.526746
0.000785507842,895.205443
0.000830863801,870.38079
0.00087621976,847.508253
0.000966931677,806.68698
0.00105067899,773.791674
0.00116234207,735.586272
0.00125898444,706.707663
0.00136207435,679.353146
0.00146516425,654.935996
0.00154976421,636.744068
0.00167666415,612.080077
0.00180356408,590.063921
0.00190770356,573.660425
0.00201184304,558.545784
0.00216805226,537.946634
0.00228421796,524.015945
0.00241240989,509.824428
0.00266879374,484.567785
0.0028117895,472.004163
0.00296958912,459.204889
0.00328518834,436.424858
0.00355833375,419.202089
0.00384970215,402.884792
0.00414107055,388.316471
0.00449973449,372.358465
0.00485839844,358.195976
0.00524467517,344.592785
0.00553901004,335.193566
0.00583334491,326.512058
0.00627484722,314.648728
0.00663716278,305.806856
0.00699947834,297.65731
0.00772410945,283.104767
0.00817010677,275.121772
0.00861610409,267.76318
0.00950809872,254.621267
0.0103316085,244.021814
0.0111551183,234.610182
0.0120420284,225.565508
0.0130557391,216.368826
0.0140694498,208.175732
0.0152392475,199.746618
0.0160711415,194.314901
0.0173189827,186.90508
0.0182469454,181.888925
0.0192709769,176.77427
0.0202950084,172.046646
0.0218310555,165.580409
0.0226982917,162.218914
0.0235655278,159.041875
0.0253,153.177338
0.0276490809,146.117894
0.0292007669,141.921319
0.0307524528,138.040541
0.0330799817,132.729657
0.0359450854,126.899824
0.0388101891,121.714028
0.0418958712,116.72141
0.0442470971,113.264497
0.0477739359,108.553531
0.0515722987,104.016071
0.0544665725,100.873112
0.0573608463,97.9641053
0.0602551201,95.2608881
0.06348363,92.459514
0.0670463762,89.5984916
0.0723904954,85.6965879
0.0759532415,83.3194748
0.0803388528,80.6056046
0.0869172698,76.9127315
0.0934956868,73.6023047
0.10159348,69.9606182
0.106992008,67.7570236
0.115089801,64.7354825
0.121735194,62.4754503
0.131703283,59.3987779
0.138348676,57.5275612
0.145761492,55.5869942
0.15394173,53.6038015
0.162121967,51.7666719
0.170302205,50.0583482
0.179427112,48.2870437
0.194531477,45.6236974
0.209635841,43.2437048
0.227065912,40.7887309
0.245658837,38.4554955
0.264251762,36.3671681
0.279509906,34.808395
0.302397123,32.6921789
0.317655267,31.4091398
0.334675451,30.0824323
0.353457673,28.7313301
0.372239896,27.4846785
0.40041323,25.7844462
0.423533465,24.5208932
0.435093582,23.9284472
0.469773935,22.2895581
0.49289417,21.2991371
0.507124255,20.7255001
0.535584427,19.6521823
0.564044598,18.66731
0.578274683,18.2047082
0.606734855,17.3334387
0.641768294,16.3498294
0.676801733,15.4524907
0.711835172,14.6308305
0.729351891,14.2455436
0.768431057,13.441229
0.789993504,13.0273872
0.833118397,12.2568724
0.854680844,11.8977541
0.897805738,11.2264379
0.919368184,10.9123555
0.978480115,10.1170233
1.03759205,9.40666868
1.09067723,8.83116871
1.14804539,8.26696243
1.19705484,7.82680744
1.26240077,7.29255719
1.29507374,7.04566224
1.36041967,6.58788665
1.41320225,6.2497307
1.47353111,5.89392713
1.51375035,5.67319188
1.55396958,5.46450586
1.59418882,5.2670045
1.63440806,5.07990072
1.69473691,4.81718717
1.73960074,4.63465211
1.78910917,4.44485812
1.83861759,4.26634152
1.88812601,4.09823046
1.96238865,3.86386992
2.01189707,3.7184824
2.06140549,3.58104606
2.13954968,3.37894489
2.22545696,3.17567533
2.28272848,3.05007403
2.37230731,2.86791412
2.43692194,2.74637112
2.53384388,2.57793642
2.59845851,2.47405308
2.68856138,2.33930709
2.73361282,2.27600846
2.82371569,2.15686382
2.86876713,2.1007657
2.98883728,1.96152173
3.07873911,1.86615852
3.13867367,1.80641638
3.24478088,1.70751724
3.38329886,1.59030191
3.47564417,1.51883348
3.61416215,1.42049765
3.70650747,1.36027032
3.84502545,1.2770535
3.93737076,1.22588021
4.0510445,1.16715513
4.16471824,1.1127225
4.27839198,1.06218615
4.39206572,1.01519413
4.50573946,0.97143296
4.61941319,0.930622731
4.7899238,0.874399486
4.96230375,0.822987455
5.15491125,0.771202691
5.34751875,0.72464942
5.54012625,0.682674269
5.71886917,0.647330208
5.88374751,0.617469111
6.05230998,0.589381049
6.22455659,0.562975689
6.39680319,0.538664471
6.5690498,0.516245843
6.7412964,0.495541956
6.91354301,0.476395437
7.08578961,0.458666672
7.25803622,0.442231488
7.549875,0.417032461
7.70775,0.40465083
7.9445625,0.387549881
8.27772353,0.366160168
8.53194706,0.351690784
8.65905883,0.34499722
8.91328236,0.332599446
9.3166306,0.315365009
9.59286706,0.30508874
9.86910353,0.295914922
10.14534,0.287741815
10.3911044,0.28124024
10.7597509,0.272727161
11.1283974,0.265566928
11.4336,0.260572278
11.6862,0.257032132
12.03984,0.252922574
12.36822,0.249941136
12.6966,0.247721748
13.2018,0.245726791
13.73226,0.245417624
14.2122,0.246687653
14.4648,0.247950492
14.97,0.251735507
15.4752,0.257272872
15.7278,0.260737827
16.233,0.269169059
16.4856,0.274190827
16.8003731,0.281267688
17.0529731,0.287653535
17.3697,0.296628402
17.6223,0.304626093
17.8749,0.313438983
18.1275,0.323141624
18.3801,0.333819677
18.6327,0.345571731
18.8853,0.358511504
19.1379,0.37277051
19.2642,0.380441479
19.5168,0.396973054
19.7694,0.415253755
20.053575,0.438191678
20.33775,0.464009851
20.5272,0.483045577
20.6421916,0.495389802
20.9061,0.526228114
21.000825,0.538229253
21.190275,0.563875431
21.34815,0.587077797
21.47445,0.606960238
21.60075,0.628122649
21.7902,0.662508487
21.9165,0.687375746
22.0428,0.713961964
22.1691,0.742426506
22.35855,0.789041509
22.48485,0.823031578
22.6743,0.87898701
22.8006,0.920012537
22.99005,0.987955143
23.0532,1.01250069
23.1795,1.06476523
23.337375,1.13669638
23.49525,1.21702429
23.5584,1.25180189
23.6847,1.32643355
23.811,1.4085914
23.87415,1.45281315
24.00045,1.54828272
24.0636,1.59986672
24.1899,1.7116915
24.284625,1.80400758
24.37935,1.90451918
24.4425,1.97656861
24.50565,2.05303738
24.5688,2.13429538
24.663525,2.26607008
24.726675,2.36119241
24.8214,2.51611925
24.88455,2.62845878
24.979275,2.8123141
25.042425,2.94630424
25.13715,3.16678882
25.2003,3.32839033
25.231875,3.4140449
25.295025,3.59595376
25.358175,3.79333287
25.38975,3.89837935
25.4529,4.1224415
25.50212,4.31118447
25.5513399,4.51359393
25.610775,4.77817064
25.64235,4.92856006
25.7055,5.25204633
25.737075,5.42617588
25.800225,5.80213254
25.8318,6.00528748
25.89495,6.44573591
25.926525,6.68475961
25.9738875,7.06955533
26.02125,7.48925402
26.0686125,7.94821638
26.115975,8.4515064
26.1633375,9.00503192
26.2107,9.61571917
26.2580625,10.2917309
26.305425,11.042741
26.3527875,11.8802828
26.40015,12.8181949
26.4159375,13.1559303
26.4475125,13.8731968
26.4633,14.2542795
26.494875,15.0656393
26.52645,15.9490606
26.558025,16.9133412
26.5738125,17.4289245
26.6053875,18.5340892
26.6369625,19.7487685
26.6685375,21.0879254
26.7001125,22.5691657
26.72853,24.0409003
26.760105,25.8527333
26.77905,27.0405297
26.79168,27.8787194
26.81694,29.6770474
26.82957,30.642509
26.85483,32.7210248
26.86746,33.8408512
26.89272,36.2608347
26.90535,37.5697115
26.924295,39.6704635
26.936925,41.1706936
26.95587,43.586216
26.974815,46.2212328
26.99376,49.103092
27.012705,52.2635216
27.03165,55.7394952
27.050595,59.5743039
27.06954,63.8188903
27.088485,68.5335215
27.0979575,71.0889962
27.1105875,74.7244278
27.12006,77.6368379
27.13269,81.7919434
27.1421625,85.1305634
27.1532137,89.2897576
27.164265,93.7602743
27.1753163,98.573756
27.1863675,103.765936
27.1989975,110.21573
27.2116275,117.28251
27.2242575,125.046802
27.2368875,133.602567
27.2495175,143.059946
27.2621475,153.548677
27.2684625,159.226732
27.2763562,166.773647
27.2826712,173.200012
27.290565,181.762755
27.29688,189.07281
27.3047738,198.839106
27.3110888,207.199699
27.3189825,218.401845
27.3268763,230.522603
27.33477,243.66318
27.3426637,257.938784
27.3505575,273.480951
27.3584513,290.440312
27.366345,308.989918
27.3742387,329.329211
27.378975,342.486316
27.3837113,356.426005
27.391605,381.566956
27.3963413,397.909356
27.4010775,415.289577
27.4058138,433.793891
27.41055,453.517292
27.4152863,474.5645
27.4200225,497.051104
27.4247588,521.104841
27.4310738,555.860679
27.43581,584.147202
27.442125,625.163904
27.4468613,658.665643
27.4531763,707.423537
27.4579125,747.395433
27.4642275,805.788528
27.467385,837.38949
27.4705425,870.736885
27.4737,905.948102
27.4768575,943.148928
27.480015,982.474034
27.4831725,1024.06743
27.48633,1068.08289
27.4894875,1114.68432
27.492645,1164.046
27.4958025,1216.35276
27.49896,1271.7999
27.5021175,1330.59292
27.505275,1392.9469
27.5100113,1493.64582
27.5131688,1565.89523
27.517905,1682.53512
27.5226412,1809.79685
27.5273775,1948.4293
27.5321138,2099.08061
27.5352713,2206.43274
27.538113,2307.85954
27.543165,2499.39416
27.54948,2758.15297
27.557058,3092.67474
27.570951,3731.86723
27.576003,3950.61862
27.579792,4100.82869
27.582318,4191.88561
27.584844,4274.11541
27.58737,4346.22952
27.589896,4407.03225
27.592422,4455.4666
27.594948,4490.6578
27.597474,4511.95139
27.6,4518.94303
27.602526,4511.49735
27.605052,4489.75443
27.607578,4454.12319
27.610104,4405.26232
27.61263,4344.05042
27.615156,4271.54776
27.617682,4188.95268
27.620208,4097.55579
27.623997,3946.88609
27.629049,3727.61849
27.642942,3087.53901
27.647994,2861.81674
27.653046,2646.80524
27.658098,2444.74833
27.661887,2302.4278
27.6663075,2146.64768
27.6710438,1991.92308
27.6742013,1895.59507
27.6773588,1804.52965
27.6805163,1718.5255
27.6852525,1598.52326
27.68841,1524.18404
27.6915675,1454.0977
27.6963038,1356.42741
27.6994613,1295.95209
27.7026187,1238.92957
27.707355,1159.41148
27.7120913,1086.52169
27.7168275,1019.64459
27.7215638,958.217651
27.7263,901.729662
27.7310363,849.717856
27.7357725,801.764497
27.7420875,743.494803
27.745245,716.565312
27.75156,666.673627
27.7547175,643.552025
27.7610325,600.5988
27.76419,580.638223
27.770505,543.458818
27.77682,509.592265
27.7799775,493.785369
27.7862925,464.218565
27.7926075,437.137129
27.7989225,412.280247
27.8052375,389.419052
27.808395,378.672967
27.81471,358.435509
27.821025,339.734302
27.82734,322.421928
27.833655,306.367722
27.83997,291.455614
27.846285,277.582272
27.8526,264.655513
27.858915,252.592922
27.86523,241.320671
27.8747025,225.751061
27.8810175,216.179101
27.8873325,207.193049
27.896805,194.712924
27.9062775,183.310768
27.91575,172.86761
27.9252225,163.280227
27.934695,154.458746
27.947325,143.753884
27.95364,138.809105
27.96627,129.647048
27.972585,125.398802
27.985215,117.49933
27.99153,113.823792
28.00416,106.967013
28.010475,103.766484
28.0262625,96.3611732
28.04205,89.7148279
28.05468,84.8767272
28.060995,82.6019621
28.073625,78.3163788
28.09257,72.4830216
28.1052,68.9463753
28.124145,64.1045936
28.136775,61.1528545
28.149405,58.3991136
28.162035,55.8261356
28.174665,53.4185127
28.187295,51.1624376
28.199925,49.0455087
28.212555,47.056563
28.225185,45.1855306
28.237815,43.4233094
28.250445,41.7616558
28.263075,40.1930898
28.275705,38.7108119
28.288335,37.3086304
28.30728,35.3433187
28.33254,32.9544803
28.3578,30.7988216
28.38306,28.8470442
28.39569,27.9396948
28.42095,26.2483209
28.439895,25.0781615
28.45884,23.9842159
28.477785,22.9600252
28.4998875,21.8456068
28.515675,21.0983342
28.54725,19.713956
28.5630375,19.0721159
28.5946125,17.8786776
28.6261875,16.793458
28.641975,16.2873976
28.67355,15.3413287
28.705125,14.4750854
28.7367,13.6799551
28.768275,12.9483805
28.79985,12.2737806
28.831425,11.6504034
28.863,11.073204
28.894575,10.5377426
28.92615,10.0400999
28.9735125,9.35706167
29.0050875,8.9396178
29.0366625,8.54943636
29.084025,8.01027894
29.1313875,7.52046851
29.17875,7.07417672
29.2261125,6.66640986
29.273475,6.29286961
29.3208375,5.94984006
29.3682,5.63409562
29.43135,5.25074002
29.462925,5.07357095
29.526075,4.74512016
29.55765,4.59273602
29.6050125,4.37757705
29.652375,4.17721052
29.715525,3.93080302
29.7471,3.81571371
29.81025,3.60023438
29.8734,3.40255939
29.904975,3.30979397
29.968125,3.13533768
30.031275,2.97438154
30.06285,2.89853656
30.126,2.75534682
30.220725,2.55978834
30.283875,2.4408419
30.347025,2.33006519
30.410175,2.22673003
30.473325,2.13018746
30.536475,2.03985766
30.599625,1.9552213
30.662775,1.87581209
30.725925,1.80121047
30.789075,1.73103808
30.852225,1.66495299
30.915375,1.6026456
30.978525,1.54383504
31.041675,1.488266
31.1364,1.41048748
31.2627,1.31612416
31.389,1.23114758
31.5153,1.15436118
31.6416,1.08475294
31.7679,1.02146222
31.83105,0.991951799
31.95735,0.936791382
32.0205,0.910995039
32.1468,0.862642033
32.20995,0.83996755
32.33625,0.797357324
32.3994,0.777325877
32.58885,0.721815028
32.7783,0.672406212
32.96775,0.6282497
33.1572,0.588638764
33.34665,0.552981794
33.5361,0.52078057
33.6624,0.501021872
33.85185,0.473674042
34.009725,0.452779126
34.199175,0.429735861
34.388625,0.40867772
34.578075,0.389392616
34.6728,0.380356437
34.956975,0.355428608
35.24115,0.333403039
35.4306,0.320129408
35.5569,0.311845788
35.8095,0.296514654
36.0621,0.28267438
36.1884,0.276260957
36.441,0.264356204
36.6936,0.253574363
36.8199,0.248568852
37.0725,0.239266018
37.3251,0.230834022
37.5777,0.223195313
37.9566,0.213080656
38.2092,0.207151816
38.4618,0.201819472
38.7172236,0.196993809
38.9877544,0.192465501
39.2327772,0.18885352
39.4602983,0.185897126
39.8628358,0.18156404
40.2216191,0.178634285
40.4053862,0.177466902
40.7379172,0.175925402
41.0879497,0.175104791
41.262966,0.175009779
41.6129986,0.175474484
41.9630311,0.176859992
42.1380474,0.177921742
42.48808,0.180846348
42.8381125,0.184948793
43.0131288,0.187492791
43.1881451,0.190398906
43.3631614,0.193697134
43.6256858,0.199456685
43.8007021,0.203898149
43.9757183,0.208877768
44.1507346,0.2144529
44.3257509,0.220690216
44.5007672,0.227667473
44.6539064,0.234450742
44.8507997,0.24422192
45.0476931,0.255340876
45.2445864,0.26802386
45.4414797,0.28253505
45.5727419,0.293382463
45.7258811,0.307399707
45.8133893,0.316144987
45.9446515,0.330387115
46.0321596,0.340707713
46.1196678,0.351757906
46.2071759,0.363604501
46.2946841,0.37632225
46.3821922,0.389995018
46.4697003,0.404717139
46.5572085,0.420595032
46.6884707,0.446846686
46.7759788,0.466177015
46.863487,0.487161642
46.9509951,0.509990859
46.9947492,0.52216427
47.0822573,0.548180574
47.1697654,0.576652945
47.2572736,0.607896347
47.3447817,0.642278119
47.3885358,0.660777617
47.4760439,0.700697532
47.519798,0.722255574
47.6073061,0.768959398
47.6510602,0.794283799
47.6990335,0.823718743
47.7604454,0.864178981
47.8260765,0.911241081
47.8698306,0.945044845
47.9354617,0.999807433
47.9792157,1.03929436
48.0229698,1.08141059
48.0667239,1.12639436
48.110478,1.17451155
48.154232,1.2260596
48.1979861,1.28137215
48.2417402,1.34082444
48.3073713,1.43870565
48.3511253,1.51048283
48.3730024,1.54853874
48.4167564,1.62938439
48.4605105,1.71714034
48.4823875,1.76385835
48.5261416,1.86353648
48.5698957,1.97238715
48.5917727,2.03060795
48.6355268,2.15545181
48.6792809,2.29273752
48.7011579,2.36656924
48.744912,2.52581643
48.788666,2.70237104
48.8105431,2.79793325
48.8542971,3.00548234
48.8761742,3.1183192
48.9089897,3.30026207
48.9308668,3.43081946
48.9636823,3.64210775
48.9855594,3.79429945
49.0183749,4.04159956
49.0511905,4.31451242
49.084006,4.61670061
49.105883,4.83653491
49.1386986,5.19756721
49.1715142,5.60140402
49.1824527,5.74670541
49.2043297,6.05508686
49.2152682,6.21881856
49.2371453,6.56716592
49.2480838,6.75257982
49.2699608,7.14810485
49.2808993,7.35920221
49.3027764,7.81081798
49.3137149,8.05256626
49.3355919,8.57139182
49.3465304,8.85001839
49.3684075,9.45006675
49.3902845,10.1138979
49.4099738,10.7735804
49.4318509,11.5858441
49.4493525,12.3041829
49.4624787,12.8880055
49.4712295,13.3007576
49.4887312,14.1884065
49.5062328,15.1684686
49.5149836,15.6972074
49.5324852,16.8414945
49.541236,17.46132
49.5499869,18.1161192
49.5587377,18.808566
49.5718639,19.9243221
49.5806147,20.7243687
49.5937409,22.0180805
49.6068671,23.4369982
49.6199934,24.9977502
49.6287442,26.1265293
49.6418704,27.9686106
49.6549966,30.0124622
49.6681228,32.2885039
49.6812491,34.8330762
49.6856245,35.7482473
49.6943753,37.689869
49.6987507,38.7203486
49.7075015,40.9117663
49.7118769,42.0776214
49.7206277,44.5632497
49.7250031,45.8890714
49.733754,48.7235613
49.7425048,51.8273431
49.7512556,55.2353071
49.7600064,58.9881201
49.7687572,63.1333982
49.777508,67.7271623
49.7840711,71.5062092
49.7884465,74.2021238
49.7928219,77.0516497
49.7971974,80.0665143
49.8015728,83.259568
49.8059482,86.6449136
49.8103236,90.2380523
49.814699,94.0560507
49.8201682,99.1736155
49.8245436,103.56939
49.8300129,109.480014
49.8343883,114.573583
49.8398576,121.445943
49.844233,127.389301
49.8497022,135.438065
49.8551715,144.254928
49.8606408,153.937831
49.86611,164.60026
49.8715793,176.374171
49.8770485,189.41353
49.8803301,197.918311
49.8836116,206.987135
49.8868932,216.668731
49.8901748,227.016912
49.8934563,238.091167
49.8967379,249.957343
49.9000194,262.688398
49.903301,276.365252
49.9065825,291.077733
49.9098641,306.925638
49.9131456,324.019902
49.917521,348.966215
49.9208026,369.472517
49.9229903,384.08515
49.925178,399.510272
49.9284596,424.292196
49.9306473,441.996648
49.932835,460.722715
49.9350227,480.539682
49.9372104,501.521398
49.9393981,523.746398
49.9415858,547.297966
49.9437735,572.264113
49.9459612,598.737453
49.9481489,626.814923
49.9503366,656.597319
49.9525243,688.188591
49.954712,721.694822
49.9568997,757.222824
49.9601813,814.535843
49.962369,855.571673
49.9656505,921.590888
49.9689321,993.178723
49.9726512,1081.20019
49.9761515,1170.65197
49.9796518,1266.09319
49.9840272,1392.42527
49.9936531,1680.47345
49.9971535,1779.08238
49.9997787,1846.80902
50.0015289,1887.87335
50.003279,1924.96508
50.0050292,1957.50349
50.0067793,1984.94961
50.0085295,2006.82684
50.0102797,2022.74059
50.0120298,2032.39548
50.01378,2035.60871
50.0164052,2028.24956
50.0181554,2015.35972
50.0199056,1996.34727
50.0216557,1971.55984
50.0234059,1941.43593
50.0251561,1906.48637
50.0269062,1867.274
50.0295315,1801.76622
50.0330318,1705.09816
50.0452829,1340.20872
50.0487833,1240.79875
50.0505334,1193.05756
50.0540337,1102.04615
50.0557839,1058.903
50.0597218,967.76295
50.0619095,920.672107
50.0640972,876.060089
50.0662849,833.858275
50.0684726,793.982146
50.0706603,756.336329
50.072848,720.81864
50.0761295,671.30054
50.0794111,625.972516
50.0826927,584.48182
50.0859742,546.491406
50.0892558,511.684916
50.0925373,479.76917
50.0958189,450.474976
50.0991004,423.556834
50.1012881,406.820516
50.1045697,383.377944
50.1067574,368.776235
50.110039,348.285932
50.1122267,335.498983
50.1166021,311.829695
50.1187898,300.870273
50.1231652,280.528533
50.1275406,262.085332
50.131916,245.323759
50.1362914,230.055117
50.1406668,216.114983
50.1450422,203.359823
