energy [eV],cross section [b]
1e-05,20.2960325
1.08963831e-05,19.4432995
1.17927661e-05,18.6897417
1.27605716e-05,17.9670209
1.35010052e-05,17.4673926
1.42414388e-05,17.0072539
1.53520893e-05,16.3805086
1.62695128e-05,15.9119661
1.71869363e-05,15.4814588
1.90217833e-05,14.7158547
2.01585036e-05,14.2949274
2.12952239e-05,13.90817
2.35686645e-05,13.2203696
2.56813196e-05,12.6649187
2.77939748e-05,12.1740683
3.00749631e-05,11.7033044
3.18200663e-05,11.3778579
3.44377209e-05,10.9368896
3.72639464e-05,10.5139666
3.94261911e-05,10.2215933
4.15884358e-05,9.95232851
4.48318029e-05,9.58556857
4.75109008e-05,9.31138609
5.15295477e-05,8.94093181
5.42086456e-05,8.7171929
5.72079432e-05,8.48560385
6.21871892e-05,8.13880103
6.8826184e-05,7.73631274
7.49956465e-05,7.41127292
8.1165109e-05,7.12403615
8.7826145e-05,6.84855361
9.5470328e-05,6.56865611
0.000103114511,6.32049078
0.00010881971,6.15257456
0.000115133986,5.98148292
0.0001246054,5.74965994
0.000134831482,5.52732354
0.000142655094,5.37361887
0.000150478706,5.23206271
0.000158302318,5.10113467
0.00016706099,4.96561287
0.000176754723,4.82752823
0.000191295322,4.64042855
0.000200989055,4.52714092
0.000212999934,4.3976476
0.000231016252,4.22268615
0.000249032571,4.06707243
0.000271355428,3.89619439
0.000293678286,3.74518993
0.000317779796,3.6003648
0.000336219004,3.50024488
0.000363877817,3.36458599
0.000382317025,3.28244542
0.000405163859,3.18855469
0.000428010693,3.10228576
0.000450857526,3.02266025
0.00047370436,2.94886706
0.000502012398,2.86451781
0.000530320435,2.78701578
0.000558628473,2.71548206
0.000604473842,2.61047472
0.000657085836,2.50378445
0.00070969783,2.40918968
0.000770693914,2.3118863
0.000835882042,2.21990618
0.00090107017,2.13809744
0.000954917105,2.0769388
0.00100876404,2.02074483
0.00108953444,1.94439903
0.00118317618,1.86586713
0.00124989444,1.81538368
0.00138333097,1.72560502
0.00150733041,1.65310183
0.00158999671,1.60955315
0.001672663,1.56927409
0.00176520939,1.52758176
0.00186763586,1.48510095
0.00202127558,1.42754092
0.00218715707,1.37233624
0.00237752212,1.31624673
0.00256788718,1.26651603
0.00270996521,1.23286666
0.00286721125,1.1985809
0.00310308031,1.15212484
0.00335774305,1.10756972
0.00355257647,1.07676798
0.00374740989,1.0484007
0.00394224331,1.02216319
0.00416036278,0.995005045
0.0044017683,0.96733325
0.00476387658,0.929838847
0.0050052821,0.907136159
0.00530439211,0.881185795
0.00575305712,0.846123514
0.00620172213,0.814938367
0.00675763399,0.780694049
0.0071282419,0.760125282
0.00768415377,0.732108846
0.00814335012,0.711164194
0.00883214464,0.682865209
0.00952093917,0.657695415
0.0100898997,0.638878843
0.0106588603,0.621589641
0.0112278209,0.605631754
0.0117967815,0.590842641
0.0125017438,0.573937839
0.0132067061,0.558405203
0.0139116685,0.5440686
0.0146166308,0.530782005
0.0154901041,0.515594642
0.0168003142,0.495074396
0.0181105242,0.476823071
0.0197339209,0.456781129
0.0208161854,0.444742863
0.0224395821,0.428345543
0.023869791,0.415308045
0.0259258596,0.398490555
0.0278034384,0.384792141
0.0294649405,0.373778702
0.0311264425,0.363659117
0.0327879446,0.354318653
0.0344494467,0.345662189
0.0365081067,0.335767221
0.0385667667,0.32667529
0.0406254268,0.318283323
0.0426840868,0.310505863
0.0452348396,0.301615615
0.0490609688,0.289603371
0.0528870981,0.278919017
0.0576278079,0.267186065
0.0623685178,0.256817138
0.0674869603,0.246871978
0.0714028988,0.239996382
0.0772768066,0.230679693
0.0836187384,0.221743649
0.0884707252,0.215565632
0.0933227119,0.209875605
0.0981746987,0.204612503
0.103606584,0.199164427
0.109618368,0.19361297
0.115630151,0.188499946
0.121641935,0.183770493
0.128372234,0.178874755
0.135821047,0.173886041
0.146994267,0.167125818
0.159057752,0.160641396
0.172901768,0.154052106
0.186745785,0.148208948
0.202795941,0.142197484
0.214231426,0.138332486
0.231384653,0.133080629
0.251271367,0.127677288
0.265440338,0.124203148
0.293778281,0.118023387
0.311334139,0.114624899
0.328889998,0.111501687
0.364001714,0.10594585
0.396630211,0.101457414
0.418382543,0.09876065
0.440134874,0.096265766
0.47796295,0.0923386276
0.518390815,0.0886247526
0.558818681,0.0853201135
0.608910241,0.0816895419
0.642304614,0.0795078657
0.692396174,0.0765349175
0.733772987,0.074311301
0.795838207,0.0713052627
0.83721502,0.0694887285
0.883537097,0.0676075799
0.934804437,0.0656898627
0.986071777,0.0639227567
1.03733912,0.0622874396
1.09473381,0.0605937768
1.19001689,0.0580555127
1.317061,0.0551062831
1.43512012,0.0527215211
1.55317923,0.0506115506
1.68064512,0.0485853876
1.82692456,0.0465239028
1.97320399,0.0446934414
2.08237894,0.0434533112
2.20320921,0.0421882941
2.38445462,0.0404717197
2.50528489,0.0394308092
2.65499789,0.0382394521
2.80471089,0.0371432416
2.95442388,0.036130016
3.19688673,0.0346399525
3.47513631,0.0331223795
3.66063602,0.032206338
3.84613573,0.0313559815
4.19089682,0.0299249377
4.53565792,0.0286565408
4.90788905,0.0274363492
5.19266987,0.0265904967
5.47745068,0.0258096907
5.90462191,0.0247431675
6.25747545,0.02394342
6.78675575,0.0228592669
7.13960929,0.0222023329
7.53463508,0.0215205223
8.19043216,0.0204957983
8.62763021,0.0198762635
9.06482826,0.0193004653
9.87738411,0.0183299368
10.68994,0.0174680752
11.567239,0.0166375
12.5740246,0.0157893528
13.5808101,0.0150335533
14.3322196,0.0145200296
15.1638483,0.0139949657
16.4112912,0.0132804885
17.2429199,0.0128461403
18.2733373,0.012348028
19.3037547,0.0118888064
20.3341722,0.0114636362
21.3645896,0.0110684931
22.6413133,0.0106155352
24.5563989,0.0100014299
26.4714846,0.00945334061
28.8443436,0.00884968153
30.4262496,0.00848633756
32.7991086,0.00799075232
34.7591463,0.00761994062
35.7391652,0.00744604441
37.6992029,0.0071188557
39.6592405,0.0068163967
41.8535375,0.00650366029
44.2820937,0.00618556366
46.71065,0.00589331156
50.3534844,0.00549673501
53.3625517,0.00520173905
54.8670854,0.00506396138
57.8761527,0.00480578934
60.8852201,0.00456845639
62.3897538,0.0044568354
66.118095,0.00419840177
69.8464362,0.00396312235
73.5747774,0.00374808131
77.3031186,0.00355084302
81.9226657,0.00332810628
86.5422128,0.00312630694
88.8519863,0.00303239775
93.4715334,0.00285709336
95.7813069,0.00277518404
101.50509,0.00258693951
107.228872,0.0024173564
110.090764,0.00233877188
115.814546,0.00219267228
122.222423,0.00204472227
127.5414,0.00193291266
132.860378,0.00182993144
139.952347,0.00170477973
145.271325,0.00161901732
151.437918,0.00152729847
158.02832,0.00143745648
162.421921,0.00138179387
169.012323,0.00130402602
173.405924,0.00125567701
179.996326,0.00118790866
184.91504,0.00114074117
190.358868,0.00109164436
195.802696,0.0010455545
203.968438,0.000981541204
209.412265,0.000941973308
214.856093,0.000904672454
223.021835,0.000852608513
232.488844,0.000797503005
239.23394,0.000761327865
249.351584,0.000711361109
256.096679,0.000680642032
266.214323,0.000638043057
272.959419,0.000611754092
279.704514,0.000587003825
288.061927,0.000558300862
296.41934,0.000531588623
304.776753,0.00050669264
313.134166,0.000483457286
321.491579,0.000461743425
334.027698,0.000431756283
346.563818,0.00040454658
356.918949,0.000383940535
362.096515,0.000374218673
377.629211,0.000347171691
387.984342,0.000330754596
403.517039,0.000308287999
413.87217,0.000294619811
424.227301,0.000281910358
435.820055,0.00026874043
448.650429,0.000255381647
461.480804,0.000243226172
474.311179,0.000232221733
480.726367,0.00022714312
493.556742,0.000217837694
499.971929,0.000213621825
512.802304,0.00020612226
522.425085,0.000201396724
528.840273,0.000198736256
535.857375,0.000196343719
543.476392,0.000194465246
547.2859,0.000193856262
554.904917,0.000193440545
558.714425,0.000193710141
564.428687,0.000194854668
568.238196,0.000196211217
572.047704,0.000198146353
575.857212,0.000200776576
579.666721,0.000204252157
583.476229,0.000208769462
587.285737,0.000214588853
590.142869,0.000220014567
592.047623,0.000224240476
593.6875,0.000228330293
595.75,0.000234152661
597.125,0.000238510427
599.875,0.000248567386
601.25,0.000254373085
602.625,0.000260781661
604.0,0.000267869312
605.375,0.000275724751
606.75,0.000284451757
608.125,0.000294172341
609.5,0.00030503073
610.875,0.000317198399
612.25,0.000330880483
613.625,0.000346324023
615.0,0.000363828665
616.375,0.000383760692
617.75,0.000406571611
618.78125,0.000425901922
619.46875,0.000440002488
620.15625,0.000455187474
620.775,0.000469872841
621.6,0.000491118861
622.15,0.000506450581
622.7,0.000522812448
623.34075,0.000543297038
623.9815,0.000565470995
624.670375,0.000591410296
625.175,0.000611942529
626.0,0.000648645145
626.594,0.000677773253
626.9955,0.000698893199
627.7985,0.000745015274
628.56025,0.000794210029
629.290375,0.000847165938
629.66025,0.000876458811
630.030125,0.000907593172
630.697,0.000968893212
630.994,0.000998559402
631.456,0.00104794214
631.687,0.00107423131
632.149,0.00113031976
632.611,0.0011915636
632.94925,0.00124004252
633.271,0.00128930569
633.7,0.00136025781
634.1125,0.00143480237
634.492,0.00150952686
634.921,0.00160198445
635.35,0.00170404212
635.807875,0.00182511293
636.20525,0.00194185272
636.45,0.0020198449
636.725,0.00211362403
637.13475,0.0022668213
637.373312,0.00236431075
637.580938,0.0024546776
637.788563,0.00255062522
637.996188,0.00265262201
638.26775,0.00279602881
638.531063,0.00294705001
638.722188,0.00306483109
639.008875,0.0032558117
639.26875,0.00344546468
639.475,0.00360851042
639.706,0.00380577918
639.8215,0.00391075025
640.0525,0.00413460908
640.2835,0.00437890132
640.455375,0.00457542965
640.6245,0.00478239697
640.73725,0.00492849054
640.905,0.0051588908
641.07,0.00540205085
641.224,0.00564523127
641.367,0.00588639229
641.51,0.00614368698
641.73,0.00657446869
641.8455,0.00681936498
641.961,0.00707846041
642.17,0.00758707698
642.335,0.00802904367
642.5,0.00851141635
642.665,0.00903927197
642.83,0.00961851048
642.995,0.0102560203
643.105,0.0107173347
643.215,0.0112108507
643.38,0.0120183123
643.49,0.0126065833
643.6,0.0132395516
643.71,0.013921861
643.82,0.0146587743
643.93,0.0154562748
644.04,0.0163211885
644.15,0.0172613305
644.26,0.0182856815
644.37,0.0194046037
644.48,0.0206301031
644.59,0.0219761531
644.71375,0.0236550086
644.79625,0.0248839781
644.8375,0.0255348547
644.92,0.0269159631
644.96125,0.0276490934
645.04375,0.0292085194
645.085,0.0300383639
645.1675,0.031808168
645.20875,0.0327525096
645.2775,0.0344228665
645.3325,0.0358531968
645.415,0.0381723358
645.47,0.0398460822
645.5525,0.0425714715
645.6075,0.044547141
645.69,0.0477794708
645.745,0.0501342586
645.8275,0.0540074511
645.8825,0.0568448859
645.91,0.0583483434
645.965,0.0615401756
645.9925,0.0632353653
646.0475,0.0668431488
646.1025,0.0707691754
646.1575,0.0750519972
646.185,0.0773408695
646.24,0.0822446467
646.295,0.0876305494
646.35,0.0935638997
646.405,0.100121468
646.46,0.107393965
646.515,0.115489199
646.5425,0.119884672
646.57,0.124536085
646.5975,0.129463698
646.625,0.134689813
646.6525,0.14023903
646.68,0.146138536
646.7075,0.152418439
646.735,0.15911215
646.7625,0.166256832
646.80375,0.177911362
646.845,0.190836028
646.8725,0.200251189
646.9,0.210380799
646.9275,0.221298992
646.955,0.233089772
646.9825,0.24584863
647.01,0.259684482
647.0375,0.274721999
647.065,0.291104421
647.0925,0.30899698
647.10625,0.318568217
647.126875,0.333780783
647.1475,0.350109392
647.16125,0.361669823
647.18875,0.386576506
647.21625,0.41414668
647.23,0.429050808
647.2575,0.461377071
647.27125,0.478927187
647.285,0.497497619
647.29875,0.517168973
647.319375,0.548936773
647.333125,0.571768836
647.346875,0.596054777
647.360625,0.621920623
647.38125,0.663992176
647.395,0.694455405
647.415625,0.744233666
647.429375,0.780450675
647.45,0.839937293
647.46375,0.88345182
647.470625,0.90648708
647.484375,0.955342247
647.49125,0.981262919
647.505,1.03636873
647.511875,1.06567698
647.525625,1.12814557
647.539375,1.19626534
647.54625,1.23265958
647.56,1.31060631
647.566875,1.35237799
647.580625,1.4421336
647.5875,1.49039467
647.60125,1.59446617
647.608125,1.65063102
647.6205,1.75947337
647.63425,1.89350452
647.64525,2.01204895
647.6535,2.10840223
647.659,2.17652604
647.67,2.32304043
647.681,2.48482294
647.692,2.66406498
647.703,2.86336449
647.7085,2.97148135
647.71675,3.14547147
647.72225,3.27006597
647.72775,3.40218628
647.73325,3.54244866
647.7415,3.76961655
647.747,3.93337161
647.75525,4.19966939
647.76075,4.3924439
647.769,4.70735199
647.7745,4.93638894
647.78275,5.31242418
647.78825,5.58735986
647.791,5.73285373
647.7965,6.04131305
647.79925,6.20490305
647.80475,6.55252559
647.8075,6.73731847
647.813,7.13097168
647.81575,7.34076483
647.82125,7.78887638
647.824,8.02834874
647.8295,8.54134754
647.83225,8.81631436
647.83775,9.40722249
647.8405,9.72497918
647.846,10.4102157
647.8515,11.1696255
647.855625,11.7943779
647.85975,12.4723417
647.8625,12.9568709
647.86525,13.4697861
647.869375,14.2973124
647.872125,14.8914201
647.874875,15.5227227
647.877625,16.1943343
647.880375,16.9096951
647.883125,17.6726123
647.885875,18.4873074
647.888625,19.3584692
647.891375,20.2913161
647.894125,21.2916674
647.896875,22.3660254
647.899625,23.5216705
647.902375,24.766772
647.905125,26.1105157
647.9065,26.8225632
647.90925,28.3340912
647.912,29.9727156
647.913375,30.8440214
647.916125,32.7003009
647.918875,34.7225883
647.92025,35.8019616
647.923,38.1105862
647.92575,40.639174
647.927125,41.9943106
647.929875,44.9051127
647.93125,46.4691387
647.934,49.8376629
647.935375,51.65248
647.938125,55.5719191
647.940187,58.7904304
647.94225,62.2748826
647.944313,66.0523717
647.945688,68.7482222
647.947063,71.5973256
647.949125,76.1812526
647.9505,79.4605151
647.951875,82.9325824
647.953938,88.5308566
647.955312,92.5435549
647.956688,96.7980077
647.95875,103.66752
647.960125,108.596537
647.9615,113.825044
647.962875,119.370617
647.96425,125.250954
647.965625,131.483564
647.967,138.085357
647.968375,145.072112
647.970438,156.303943
647.9725,168.467783
647.9747,182.484201
647.9769,197.550587
647.9791,213.581327
647.9813,230.408682
647.98735,278.11168
647.98955,294.445697
647.9912,305.665903
647.9923,312.469931
647.9934,318.616604
647.9945,324.009725
647.9956,328.560003
647.9967,332.188465
647.9978,334.829714
647.9989,336.43477
648.0,336.9733
648.00165,335.764508
648.00275,333.636615
648.00385,330.49481
648.00495,326.396606
648.00605,321.414573
648.00715,315.633265
648.00825,309.145853
648.0099,298.306605
648.0121,282.309335
648.0187,230.412832
648.022,205.458338
648.0242,189.894732
648.0253,182.489201
648.0275,168.472962
648.028875,160.259074
648.03025,152.463152
648.032312,141.535109
648.034375,131.489034
648.036438,122.273331
648.0385,113.830541
648.039875,108.602025
648.041938,101.315382
648.043312,96.8034447
648.045375,90.5133297
648.04675,86.6158137
648.048125,82.9378963
648.0495,79.465786
648.051562,74.615274
648.052937,71.6024791
648.054312,68.7533258
648.055687,66.0574241
648.05775,62.2798563
648.059125,59.9260064
648.061875,55.5767321
648.064625,51.657185
648.067375,48.1162605
648.070125,44.9096042
648.0715,43.4193844
648.07425,40.6435101
648.077,38.1148216
648.07975,35.806099
648.081125,34.7266777
648.083875,32.7042965
648.08525,31.7564788
648.088,29.976576
648.089375,29.140494
648.092125,27.5669853
648.0935,26.8262535
648.09625,25.4293054
648.097625,24.7703422
648.10175,22.936655
648.105875,21.2950156
648.11,19.820079
648.11275,18.9186974
648.116875,17.6756989
648.119625,16.9127217
648.12375,15.8562235
648.1265,15.2051202
648.130625,14.3001189
648.133375,13.7403319
648.1375,12.9595542
648.14025,12.4749783
648.143,12.0167592
648.14575,11.5830422
648.15125,10.7824722
648.15675,10.0613269
648.16225,9.40953481
648.16775,8.81855707
648.17325,8.28111843
648.17875,7.79099122
648.18425,7.34282084
648.18975,6.93198401
648.19525,6.55447291
648.198,6.3771066
648.2035,6.04318587
648.209,5.73467988
648.21725,5.31418442
648.2255,4.93808773
648.23375,4.60037964
648.242,4.29602929
648.25025,4.02080053
648.2585,3.77110647
648.26675,3.54389401
648.275,3.33655162
648.28325,3.1468351
648.2915,2.97280745
648.297,2.86466667
648.308,2.66532179
648.3135,2.57334494
648.3245,2.40308912
648.3355,2.24915392
648.341,2.17766374
648.352,2.04452383
648.361625,1.93777631
648.374,1.81236591
648.385,1.71082108
648.39875,1.59544163
648.4125,1.49133805
648.42625,1.3970894
648.44,1.31149143
648.446875,1.27160975
648.460625,1.19711124
648.4675,1.16229118
648.48125,1.09705487
648.488125,1.06647566
648.501875,1.00902891
648.50875,0.98202949
648.5225,0.931180863
648.529375,0.907224008
648.55,0.840646774
648.570625,0.781134668
648.59125,0.727722918
648.605,0.695100741
648.625625,0.650130505
648.639375,0.622531417
648.66,0.584314282
648.67375,0.560758193
648.694375,0.528007458
648.708125,0.507742024
648.721875,0.48862121
648.735625,0.470560448
648.75625,0.445290566
648.77,0.429558256
648.7975,0.400495621
648.825,0.374285946
648.8525,0.350567782
648.88,0.329035139
648.9075,0.309427589
648.935,0.29152236
648.9625,0.275127986
648.99,0.260079179
649.00375,0.253013821
649.03125,0.239720608
649.05875,0.227448654
649.1,0.21073595
649.1275,0.200597654
649.155,0.191174217
649.19625,0.178237848
649.2375,0.166572392
649.27875,0.156016674
649.32,0.146434281
649.36125,0.137709132
649.4025,0.129741948
649.44375,0.122447413
649.485,0.115751887
649.5125,0.111589108
649.5675,0.103910811
649.595,0.100365898
649.65,0.0938001085
649.705,0.0878590638
649.7325,0.0850983417
649.7875,0.07995404
649.815,0.077555385
649.85625,0.0741552084
649.925,0.0689662068
649.98,0.065198092
650.035,0.0617312026
650.09,0.0585342649
650.145,0.0555799607
650.2,0.0528443422
650.255,0.0503063447
650.31,0.0479473801
650.365,0.0457509955
650.42,0.0437025856
650.475,0.0417891489
650.53,0.0399990812
650.585,0.0383219993
650.6675,0.0359981114
650.7225,0.034564773
650.79125,0.0328908202
650.87375,0.0310384288
650.95625,0.0293388725
651.03875,0.0277757865
651.12125,0.0263349393
651.20375,0.0250039071
651.28625,0.0237718055
651.36875,0.0226290662
651.465,0.021397611
651.52,0.0207388072
651.63,0.0195098521
651.685,0.0189362089
651.795,0.0178627989
651.85,0.0173602457
651.96,0.0164171942
652.015,0.0159744505
652.125,0.0151414696
652.18,0.0147494069
652.29,0.0140100075
652.455,0.0130018432
652.565,0.0123895669
652.73,0.0115499482
652.84,0.0110372381
653.005,0.0103305816
653.115,0.00989696186
653.28,0.00929660139
653.39,0.00892660087
653.5,0.00857855982
653.61,0.00825077357
653.72,0.00794169972
653.83,0.00764993998
654.039,0.0071388404
654.21225,0.00675364817
654.435,0.00630333813
654.633,0.00594051569
654.853,0.0055736514
655.04,0.00528844747
655.26275,0.00497701887
655.48825,0.00468959504
655.601,0.00455536885
655.832,0.00429822942
656.063,0.00406284431
656.294,0.00384682524
656.4095,0.0037454203
656.73125,0.00348381668
656.895562,0.00336101867
657.086687,0.00322646589
657.373375,0.00303983406
657.5645,0.00292461126
657.73225,0.00282901371
657.9,0.00273822555
658.107625,0.00263204425
658.419062,0.00248449303
658.7305,0.00234957622
659.0,0.00224193646
659.388092,0.00210012064
659.672375,0.00200507051
660.0395,0.00189211875
660.34475,0.00180575502
660.65,0.00172555052
660.8645,0.00167256375
661.2935,0.00157415867
661.629,0.00150356845
661.8875,0.00145262142
662.1625,0.00140144521
662.5145,0.00134012129
662.9435,0.00127114089
663.389,0.0012055019
663.851,0.00114316881
664.313,0.00108603308
664.775,0.00103353071
665.303,0.000978576522
665.784938,0.000932606503
666.33975,0.000884082358
666.709625,0.000854088891
667.0795,0.000825811699
667.619875,0.000787320068
668.2015,0.000749268942
668.603,0.000724846854
669.406,0.000680028513
670.275,0.000636837666
671.1,0.000600220596
672.0185,0.000563765992
672.979625,0.000529796455
673.575,0.00051062463
674.4,0.000486144425
675.3625,0.000460297329
676.1875,0.000440185909
677.21875,0.000417364083
677.90625,0.000403420453
678.59375,0.000390388502
679.28125,0.000378189171
680.3125,0.000361298805
681.0,0.000350887717
682.375,0.000331863552
683.75,0.000314935762
685.125,0.000299800588
686.5,0.000286207457
687.1875,0.000279922684
688.5625,0.000268263179
689.9375,0.000257687026
691.3125,0.000248059492
692.6875,0.000239266215
694.75,0.000227430945
696.125,0.00022032618
698.1875,0.000210679269
