energy [eV],cross section [b]
1e-05,1536.25345
1.09261731e-05,1469.70022
1.18523462e-05,1411.10899
1.2854768e-05,1354.97264
1.40096869e-05,1297.92124
1.51646058e-05,1247.51823
1.60296321e-05,1213.39058
1.69897389e-05,1178.60687
1.84298991e-05,1131.62029
1.93900059e-05,1103.24803
2.05872394e-05,1070.68811
2.17844729e-05,1040.85064
2.29817064e-05,1013.37623
2.41789398e-05,987.968563
2.56718655e-05,958.81081
2.79112539e-05,919.542456
3.01506423e-05,884.734573
3.29431138e-05,846.406013
3.57355852e-05,812.662826
3.87579511e-05,780.333408
4.10793875e-05,757.963763
4.45615422e-05,727.746362
4.83303704e-05,698.795003
5.12251541e-05,678.762731
5.41199377e-05,660.359991
5.84621132e-05,635.362825
6.2071849e-05,616.611231
6.56815849e-05,599.427518
6.92913208e-05,583.604705
7.29010566e-05,568.97215
7.96529566e-05,544.322691
8.64048565e-05,522.622114
9.37126167e-05,501.83073
0.000102132098,480.700415
0.000110551578,462.032459
0.000120357352,442.810467
0.000127356632,430.469968
0.000137855552,413.752551
0.000145719171,402.433246
0.00015444713,390.896328
0.000163175088,380.297874
0.000171903047,370.517182
0.000181708819,360.380569
0.000198034197,345.205726
0.000208917783,336.093047
0.000219801368,327.665851
0.00024015878,313.469682
0.000253730388,304.970246
0.000267301996,297.126608
0.000291011317,284.764498
0.000316396592,273.100749
0.000341781868,262.761836
0.000362885146,255.006085
0.000383988425,247.898795
0.000415643343,238.270668
0.00043935266,231.751474
0.000465668016,225.106929
0.000491983372,219.002862
0.000518298728,213.369758
0.00054786376,207.531645
0.00058067847,201.58127
0.000613493179,196.114901
0.000646307888,191.070288
0.000703634513,183.119595
0.000765013417,175.618006
0.000826392322,168.968447
0.000902930558,161.646224
0.000979468794,155.199898
0.00106230815,149.023573
0.00112593589,144.749944
0.00118956364,140.823911
0.00128500525,135.490954
0.00136434773,131.490382
0.00144369022,127.82426
0.00152303271,124.448439
0.0016023752,121.326518
0.00175078288,116.067344
0.00184972134,112.918546
0.0019486598,110.012657
0.00212150325,105.432681
0.00230656459,101.111317
0.00249162593,97.2806888
0.00272239363,93.0624519
0.00287623876,90.5368566
0.00310700646,87.1061251
0.00329884818,84.5324694
0.00358661077,81.066238
0.00387437335,77.9935759
0.00411359605,75.688514
0.00435281875,73.5760962
0.00459204145,71.6308933
0.00483126415,69.8319404
0.00512956995,67.7673687
0.00557702865,64.9867122
0.00587533445,63.3120402
0.00621047796,61.5763309
0.00676844978,58.9777164
0.00732642161,56.6816973
0.00797626517,54.3172843
0.00844011812,52.7991833
0.00913589755,50.7424346
0.00994623915,48.6243635
0.0105246543,47.264396
0.011392277,45.4218427
0.0120421204,44.1740882
0.0127633922,42.9021923
0.013484664,41.7336095
0.0142059358,40.6550559
0.0150162773,39.5371031
0.016365394,37.8631761
0.0172648052,36.8577624
0.0181642163,35.9278322
0.0198465372,34.3609527
0.0215288581,32.9811135
0.023312804,31.6839167
0.0253,30.4032687
0.0267722956,29.5476185
0.0291165705,28.3212034
0.0308605293,27.5006947
0.032604488,26.7467005
0.0352204261,25.7221332
0.0373951069,24.9532334
0.0395697877,24.2483574
0.0417444685,23.5990607
0.0439191493,22.9983808
0.0479868229,21.9859583
0.0506986053,21.3794524
0.0534103877,20.8194838
0.0581478159,19.9363801
0.0632201214,19.1024718
0.068292427,18.3626504
0.0725091343,17.8072377
0.0788341954,17.0585751
0.0851592564,16.3942511
0.090417404,15.8954286
0.0956755517,15.4379175
0.103562773,14.8174732
0.109470248,14.3968981
0.11602705,13.9678059
0.122583853,13.5732023
0.129140655,13.2086645
0.140595254,12.6333162
0.148771452,12.2633699
0.15694765,11.9222884
0.170221624,11.4209875
0.185514951,10.9104083
0.200808278,10.4582913
0.218619697,9.99162027
0.231333341,9.69134853
0.250403806,9.28365759
0.264687454,9.0069595
0.280541107,8.72435388
0.304321586,8.34158057
0.320175239,8.1098312
0.339944419,7.84325772
0.359713599,7.59835249
0.379482779,7.37228143
0.411577841,7.03951065
0.448555484,6.69992434
0.485533128,6.39863323
0.528599251,6.08703139
0.574709614,5.79164771
0.620819978,5.52859779
0.659152429,5.33046649
0.697484881,5.14826074
0.754983559,4.90039971
0.798049676,4.73186713
0.845849457,4.55948048
0.893649239,4.40055071
0.94144902,4.25338815
1.02495426,4.02045555
1.11436228,3.79953756
1.2037703,3.60276862
1.31526027,3.38507036
1.38958692,3.25422563
1.50107689,3.07591014
1.59376069,2.94173008
1.7327864,2.7605128
1.82547021,2.65113507
1.92959951,2.53761867
2.04517431,2.42179459
2.16074912,2.31532441
2.33411132,2.17068804
2.47823074,2.06226063
2.55029044,2.01157206
2.69440985,1.91648325
2.76646956,1.87181897
2.91058897,1.78767431
3.00044595,1.73842111
3.1801599,1.64653141
3.35987385,1.56250464
3.5395878,1.48536437
3.74149459,1.40590525
3.9655942,1.32552301
4.18969381,1.25230856
4.30174362,1.21810114
4.52584323,1.15399474
4.66556705,1.11668684
4.94501467,1.04753902
5.08473848,1.01544794
5.36418611,0.955687356
5.50390992,0.927828504
5.81786646,0.869619902
6.16633192,0.811334485
6.51479738,0.758808856
6.86326284,0.711279801
7.14612789,0.675931323
7.47202485,0.638390976
7.79792181,0.60389801
8.12381877,0.572123953
8.34108341,0.552309971
8.55834806,0.53350282
8.96064635,0.501110051
9.37034614,0.471038684
9.59501228,0.455673337
10.0443446,0.427092077
10.2690107,0.413787813
10.718343,0.388956335
11.2808465,0.360860815
11.7876025,0.338043244
12.2943586,0.317294701
12.8011146,0.29837414
13.3078707,0.281074926
13.8563462,0.263973043
14.2776224,0.251862838
14.6988987,0.240558184
15.120175,0.229990381
15.5414513,0.220097922
15.9627275,0.210825596
16.3840038,0.20212373
16.8052801,0.193947529
17.3453534,0.18417027
18.0042239,0.173212515
18.6630943,0.163208308
18.9925295,0.158530623
19.6514,0.149765604
20.4349506,0.140270575
21.2185011,0.131669448
22.015187,0.123733071
22.540473,0.118900649
23.328402,0.112188911
23.853688,0.108041712
24.4656462,0.103511474
25.0776044,0.0992801674
25.6895626,0.0953238625
26.4590359,0.0907065291
27.257506,0.0862982433
27.656741,0.0842286976
28.581262,0.0797519527
29.106548,0.0773908809
29.631834,0.0751521696
30.4407744,0.0719275591
31.0080833,0.0698164751
31.7172722,0.067339084
32.9938754,0.0632940678
34.0180248,0.0603976575
34.7034703,0.0586168529
35.391595,0.0569474739
36.442167,0.0546125215
37.8551863,0.0518472855
38.561696,0.0506143433
39.6963138,0.0488293197
40.7810931,0.0473361256
42.184461,0.0456985611
43.2262357,0.0446903467
44.4554049,0.0437242947
45.390414,0.0431519516
46.3779517,0.0427030264
47.1973978,0.0424558545
48.016844,0.0423275599
48.5999115,0.0423122526
49.1829789,0.042363476
50.117988,0.0425937712
51.3040863,0.0431753722
52.0799312,0.0437531612
52.4765221,0.0441157055
53.269704,0.0449916464
53.7503407,0.0456297501
54.2756267,0.0464300018
55.0057742,0.0477413638
55.5021695,0.0487813075
56.1167541,0.050258106
56.7786145,0.0521156245
57.2198547,0.0535297913
57.661095,0.0551034045
58.3071967,0.0577356665
58.7326784,0.0597127581
59.236953,0.062346038
59.7832504,0.0656090371
60.2034792,0.0684561864
60.4240993,0.0700838509
60.8443281,0.0734685659
61.2540512,0.0771735051
61.4641656,0.079248445
61.8843944,0.0838020021
62.199566,0.0876149592
62.5147376,0.0918183454
62.724852,0.0948632017
63.0400236,0.0998390922
63.250138,0.103458714
63.5653096,0.109400974
63.8726853,0.115868777
64.0905956,0.120912437
64.30071,0.126180873
64.6158816,0.134928081
64.7209388,0.138094539
64.9310532,0.144847398
65.0361104,0.148450318
65.2462248,0.156155173
65.351282,0.160277661
65.5613964,0.169120326
65.6664536,0.173866338
65.8240394,0.181431701
65.9816252,0.189581419
66.139211,0.198376947
66.2967968,0.20788806
66.4543826,0.218194243
66.6119684,0.229386358
66.6907613,0.235346635
66.8483471,0.248067969
67.0321972,0.264407506
67.189783,0.279870149
67.3473688,0.296865587
67.452426,0.309149375
67.5574832,0.322277566
67.6625404,0.33632935
67.7675976,0.351393436
67.8726548,0.367569462
67.977712,0.384969649
68.0827692,0.403720761
68.1878264,0.423966427
68.2928836,0.445869908
68.3979408,0.469617407
68.502998,0.495422056
68.6080552,0.523528725
68.7131124,0.554219872
68.8181696,0.587822691
68.8706982,0.605832577
68.9757554,0.644536357
69.028284,0.665350553
69.1333412,0.710243671
69.1858698,0.734476723
69.290927,0.786954345
69.3697199,0.83022111
69.4485128,0.877272995
69.5273057,0.92856526
69.6060986,0.984623767
69.6848915,1.04605855
69.7374201,1.09034821
69.7899487,1.13758046
69.8687416,1.21453824
69.9212702,1.27036328
69.9737988,1.33021016
70.0525917,1.42840158
70.1051203,1.50014795
70.1576489,1.57753916
70.1839132,1.61853863
70.2364418,1.70556404
70.2627061,1.75177482
70.3152347,1.85010385
70.341499,1.90244871
70.3940276,2.01412872
70.4465562,2.13608108
70.4990848,2.26960625
70.5253491,2.34117202
70.5778777,2.49497111
70.6304063,2.66462092
70.6829349,2.85237802
70.7354635,3.06091531
70.7617278,3.17394869
70.7879921,3.2934177
70.8142564,3.41982051
70.8405207,3.55370439
70.866785,3.69567173
70.9061815,3.92525098
70.9324458,4.09048763
70.9587101,4.26645708
70.9849744,4.45410945
71.0112386,4.65450235
71.037503,4.86881576
71.0637672,5.09836945
71.0900316,5.34464329
71.1162959,5.60930117
71.1425602,5.89421904
71.1688245,6.20151826
71.1950888,6.53360509
71.2082209,6.70978512
71.2344852,7.08430654
71.2607495,7.49121045
71.2870138,7.93433825
71.3132781,8.41811772
71.3264103,8.67682259
71.3526746,9.23144268
71.3789388,9.84113878
71.392071,10.1689456
71.4183353,10.875786
71.4314674,11.2572235
71.4551053,11.9963646
71.4734903,12.6228483
71.4892489,13.199787
71.5076339,13.924361
71.5286454,14.8280218
71.5391511,15.3132226
71.5601625,16.3579205
71.581174,17.5133013
71.6021854,18.7955311
71.617944,19.851876
71.6284497,20.6063267
71.6389554,21.4045751
71.6494611,22.2500678
71.6599669,23.1465956
71.6704726,24.0983364
71.6809783,25.1099026
71.691484,26.1863966
71.7019897,27.3334744
71.7124955,28.5574189
71.7230012,29.8652247
71.7335069,31.2646966
71.7440126,32.7645643
71.7545183,34.3746165
71.7702769,37.0207408
71.7807826,38.9575224
71.7860355,39.9831487
71.7965412,42.1591238
71.8070469,44.5167059
71.8122998,45.7699381
71.8228055,48.439545
71.8333112,51.348132
71.8385641,52.9009859
71.8490698,56.2240967
71.8543227,58.0034095
71.8648284,61.8229064
71.8700813,63.874466
71.8779606,67.1468904
71.8858398,70.6748493
71.8937191,74.4853395
71.9015984,78.6089721
71.9094777,83.0805599
71.917357,87.9398185
71.9252363,93.2322037
71.9331156,99.0099185
71.9409949,105.333127
71.9488742,112.271427
71.954127,117.278064
71.9593799,122.620873
71.9672592,131.332235
71.972512,137.654801
71.9777649,144.434752
71.9830178,151.716136
71.9882706,159.548274
71.9935235,167.986504
71.9987763,177.093054
72.0040292,186.938045
72.009282,197.600676
72.0145349,209.170594
72.0197878,221.749504
72.0250406,235.453043
72.0302935,250.41299
72.0355464,266.779831
72.0381728,275.543712
72.0434256,294.35153
72.0460521,304.44829
72.0499917,320.541238
72.0526181,331.948388
72.0565578,350.164227
72.0591842,363.100506
72.0631239,383.79774
72.0657503,398.524198
72.0696899,422.130759
72.0723164,438.958962
72.076256,465.985277
72.0801957,495.348036
72.0841353,527.288792
72.088075,562.07405
72.0920146,599.99654
72.0959542,641.375847
72.0985807,671.052331
72.1012071,702.527124
72.1051467,753.359329
72.1077732,789.83171
72.1103996,828.510757
72.1143393,890.927377
72.1169657,935.638919
72.1195921,982.956481
72.1222185,1032.97455
72.1261582,1113.22618
72.1295725,1187.94402
72.1337748,1286.45364
72.135876,1338.32552
72.1400783,1446.86639
72.1442806,1560.79277
72.1558368,1883.70118
72.1600391,1994.24266
72.1631908,2070.16411
72.165292,2116.19677
72.1673931,2157.77584
72.1694943,2194.25036
72.1715954,2225.01617
72.1736966,2249.53908
72.1757977,2267.37682
72.1778989,2278.19835
72.18,2281.79883
72.1821011,2278.10927
72.1842023,2267.19974
72.1863034,2249.27607
72.1884046,2224.67028
72.1905057,2193.82546
72.1926069,2157.27653
72.194708,2115.62817
72.1968092,2069.53178
72.1999609,1993.52563
72.2041632,1882.89185
72.2157194,1559.83912
72.2199217,1445.89211
72.224124,1337.34286
72.2283263,1235.32617
72.231478,1163.46554
72.235155,1084.80487
72.2390947,1006.673
72.2417211,958.027733
72.2443475,912.038523
72.246974,868.603912
72.2509136,807.996914
72.25354,770.450549
72.2561665,735.05113
72.2601061,685.717772
72.2627325,655.170557
72.265359,626.366623
72.2692986,586.198107
72.2732383,549.376417
72.2771779,515.59085
72.2811176,484.55747
72.2850572,456.018222
72.2889968,429.739497
72.2929365,405.510407
72.2981894,376.067629
72.3008158,362.460088
72.3060686,337.248821
72.3086951,325.564606
72.3139479,303.85799
72.3165744,293.770472
72.3218272,274.980412
72.3270801,257.863868
72.3297065,249.874615
72.3349594,234.930225
72.3402122,221.241454
72.3454651,208.676576
72.350718,197.119998
72.3533444,191.687561
72.3585972,181.456652
72.3638501,172.001982
72.369103,163.249086
72.3743558,155.13196
72.3796087,147.591969
72.3848615,140.576915
72.3901144,134.040228
72.3953673,127.940271
72.4006201,122.239747
72.4084994,114.365586
72.4137523,109.524421
72.4190051,104.9794
72.4268844,98.6668037
72.4347637,92.8991025
72.442643,87.6161796
72.4505223,82.7658749
72.4584016,78.302771
72.4689073,72.8864147
72.4741602,70.3843435
72.4846659,65.7480398
72.4899187,63.5981554
72.5004245,59.6002775
72.5056773,57.7399952
72.516183,54.2693993
72.5214359,52.6493358
72.5345681,48.9006096
72.5477002,45.5357507
72.5582059,43.0861342
72.5634588,41.9343105
72.5739645,39.7641831
72.5897231,36.8100033
72.6002288,35.0187642
72.6159874,32.5662579
72.6264931,31.0709645
72.6369988,29.6758622
72.6475045,28.3722345
72.6580103,27.1522887
72.668516,26.0090415
72.6790217,24.9362203
72.6895274,23.9281786
72.7000331,22.9798227
72.7105389,22.0865482
72.7210446,21.2441849
72.7315503,20.4489485
72.742056,19.6973992
72.7525617,18.9864043
72.7683203,17.9897683
72.7893318,16.778189
72.8103432,15.6847012
72.8313546,14.6944782
72.8418604,14.2340846
72.8628718,13.3757718
72.8786304,12.7818744
72.894389,12.2265923
72.9101475,11.7066557
72.9285326,11.1408418
72.9416647,10.7613904
72.967929,10.0583249
72.9810612,9.73231341
73.0073254,9.12603787
73.0335898,8.57462899
73.0467219,8.3174571
73.0729862,7.83660893
73.0992505,7.39624558
73.1255148,6.99195306
73.1517791,6.61990229
73.1780434,6.27675857
73.2043077,5.95960699
73.230572,5.66589063
73.2568363,5.39335914
73.2831006,5.14002568
73.3093649,4.90413075
73.3356292,4.68411175
73.3618935,4.4785771
73.3881578,4.28628429
73.4275543,4.02027223
73.4538186,3.85646432
73.4800829,3.70247585
73.5194793,3.48824386
73.5588758,3.29210203
73.5982722,3.11207173
73.6508008,2.89416131
73.6770651,2.7937059
73.7295937,2.60790339
73.755858,2.52189304
73.8083866,2.36219369
73.8346509,2.28798914
73.8871795,2.14972812
73.9134438,2.08526607
73.9659724,1.96477525
73.9922367,1.9084239
74.0447653,1.80278692
74.0972939,1.70572165
74.1235582,1.66011686
74.1760868,1.57425503
74.2548797,1.45749792
74.3074083,1.38677249
74.3862012,1.29002003
74.4387298,1.23107585
74.4912584,1.1761118
74.543787,1.12477792
74.5963156,1.07676185
74.6488442,1.0317841
74.7013728,0.989593994
74.7539014,0.949966154
74.80643,0.912697521
74.8589586,0.877604746
74.9114872,0.84452194
74.9640158,0.813298718
75.0165444,0.783798492
75.069073,0.75589698
75.1741302,0.704446823
75.2791874,0.658154273
75.3842446,0.616353397
75.4893018,0.578482306
75.5418304,0.560868552
75.6468876,0.52802064
75.7256805,0.505283703
75.8044734,0.484018808
75.9095306,0.457742793
76.0145878,0.433605011
76.0671164,0.422266346
76.1721736,0.400922561
76.2247022,0.390871582
76.382288,0.362956893
76.5398738,0.338027498
76.6974596,0.315673472
76.8550454,0.295552871
76.9601026,0.283236243
77.1176884,0.266222535
77.2227456,0.25576049
77.3803314,0.24124743
77.5116529,0.23012948
77.6692387,0.2178339
77.8268245,0.20656049
77.9844103,0.196199561
78.0632032,0.191330981
78.2995819,0.177845854
78.5359606,0.165850093
78.6935464,0.158575067
78.7986036,0.154014055
79.008718,0.145522334
79.2188324,0.137788483
79.4289468,0.13072588
79.6548484,0.123796385
79.8649628,0.11790035
80.1643472,0.110303381
80.3744616,0.105471033
80.584576,0.101004333
80.7946904,0.0968682118
81.0048048,0.0930317538
81.2149192,0.0894676247
81.4250336,0.0861515884
81.635148,0.0830620998
81.8452624,0.080179959
82.0553768,0.0774880161
82.2654912,0.0749709194
82.4756056,0.0726148992
82.8958344,0.068337829
83.3160632,0.0645718309
83.7152806,0.0614043186
84.1565208,0.0583087776
84.45675,0.0564189629
84.912,0.0538516966
85.2664,0.0520788926
85.74484,0.0499684877
86.1524,0.0484058618
86.51566,0.0471824604
86.87006,0.046134911
87.2156,0.0452475598
87.57,0.0444721577
87.9244,0.0438326839
88.2788,0.0433311916
88.8104,0.042849424
89.1648,0.0427222569
89.5192,0.0427671582
89.8736,0.0430051707
90.228,0.0434652112
90.5824,0.0441868024
90.9368,0.0452241054
91.2026,0.0462532899
91.3355,0.0468627473
91.6013,0.0483032665
91.80065,0.0496087915
91.93355,0.0506043572
92.1772,0.0527350094
92.3544,0.0545766841
92.443,0.0556051308
92.6202,0.0579101371
92.7088,0.0592022519
92.8417,0.0613406003
92.9746,0.0637519039
93.1075,0.0664798919
93.2404,0.0695775983
93.3733,0.0731098375
93.4619,0.0757447716
93.5505,0.0786361815
93.6391,0.0818168663
93.7277,0.0853250857
93.772,0.0872157422
93.8163,0.0892056877
93.9049,0.0935115178
93.9935,0.0983051922
94.0821,0.103661348
94.1707,0.109669523
94.2593,0.116437869
94.32575,0.122091115
94.37005,0.126170531
94.41435,0.130524116
94.45865,0.135176714
94.50295,0.14015605
94.54725,0.145493148
94.59155,0.151222803
94.63585,0.157384155
94.68015,0.16402135
94.72445,0.171184333
94.76875,0.178929781
94.8352,0.191783713
94.8795,0.201288207
94.9238,0.211644901
94.94595,0.217174891
94.99025,0.229011022
95.03455,0.241992821
95.07885,0.256272571
95.101,0.263953779
95.1453,0.28052473
95.1896,0.298901454
95.2339,0.319355561
95.2782,0.342211715
95.30035,0.354659633
95.3225,0.367860565
95.34465,0.381876398
95.3668,0.396775508
95.38895,0.412633595
95.4111,0.429534641
95.444325,0.457048907
95.466475,0.476989659
95.488625,0.498350289
95.510775,0.521268699
95.532925,0.545899939
95.555075,0.572418827
95.577225,0.601023049
95.599375,0.631936848
95.621525,0.665415409
95.643675,0.701750131
95.65475,0.721091049
95.6769,0.762351517
95.69905,0.80740002
95.7212,0.856714185
95.74335,0.910849264
95.754425,0.939923159
95.776575,1.00253986
95.798725,1.07181732
95.81423,1.12479114
95.82752,1.17346569
95.84081,1.22544513
95.8541,1.28103499
95.86296,1.32026772
95.88068,1.40445352
95.88954,1.44965655
95.90726,1.54698713
95.92498,1.65463366
95.9427,1.77410308
95.95599,1.87252917
95.96485,1.94282749
95.97371,2.01720812
95.987,2.13714482
95.99586,2.22320809
96.00472,2.31462738
96.01801,2.46280102
96.02687,2.56969634
96.03573,2.68375667
96.04459,2.80563407
96.05345,2.93605614
96.06231,3.07583669
96.07117,3.22588829
96.08003,3.38723683
96.08889,3.56103883
96.09775,3.74860172
96.10661,3.95140796
96.11547,4.17114372
96.12433,4.40973316
96.13319,4.66937954
96.13762,4.80787594
96.14648,5.10397402
96.15534,5.42821027
96.15977,5.60199735
96.16863,5.97546152
96.17749,6.38734837
96.18192,6.60935042
96.19078,7.08928015
96.19521,7.34893491
96.201855,7.76576334
96.2085,8.21873398
96.215145,8.71208491
96.22179,9.25068327
96.228435,9.84013854
96.23508,10.4869397
96.241725,11.198622
96.24837,11.983971
96.255015,12.8532734
96.26166,13.8186251
96.26609,14.5225059
96.27052,15.2802409
96.272735,15.6809874
96.277165,16.5299711
96.281595,17.447804
96.286025,18.4418705
96.290455,19.5205294
96.294885,20.6932637
96.299315,21.9708556
96.303745,23.3655923
96.308175,24.8915054
96.312605,26.5646527
96.317035,28.4034452
96.321465,30.4290295
96.325895,32.6657297
96.32811,33.8718417
96.33254,36.4790397
96.334755,37.8887749
96.3380775,40.1494534
96.3402925,41.7616091
96.343615,44.351711
96.34583,46.2021202
96.3491525,49.1802075
96.3513675,51.3113173
96.35469,54.7464718
96.3580125,58.4937478
96.361335,62.5846028
96.3646575,67.0528502
96.36798,71.9343204
96.3713025,77.2662298
96.3735175,81.089654
96.3757325,85.1408818
96.379055,91.6672746
96.38127,96.331201
96.383485,101.254121
96.387472,110.781539
96.389244,115.291346
96.392788,124.80444
96.395446,132.34335
96.398104,140.18428
96.410508,178.312424
96.414052,188.410135
