energy [eV],cross section [b]
1e-05,1.70021066
1.09819633e-05,1.62241795
1.19639266e-05,1.55441102
1.30316012e-05,1.48937427
1.42706984e-05,1.4232465
1.55097955e-05,1.36521076
1.64440157e-05,1.32586345
1.74863912e-05,1.28573849
1.90499545e-05,1.23184417
2.07499944e-05,1.18030366
2.20653231e-05,1.14458381
2.33806518e-05,1.1119223
2.46959806e-05,1.0819062
2.61835232e-05,1.05072413
2.78432799e-05,1.01892579
3.03329148e-05,0.976215456
3.3039859e-05,0.935370483
3.6181422e-05,0.893840319
3.93229849e-05,0.857392185
4.30129745e-05,0.819790769
4.56557764e-05,0.79571015
4.96199792e-05,0.763263472
5.42762179e-05,0.729790125
5.76110557e-05,0.708353195
6.09458934e-05,0.688700744
6.42807312e-05,0.670598187
6.84888191e-05,0.649670195
7.26969071e-05,0.630586717
7.69049951e-05,0.61309181
8.11130831e-05,0.596976641
8.90780902e-05,0.569662131
9.70430974e-05,0.545783598
0.000105703335,0.522947952
0.000115754034,0.499729229
0.000125804733,0.479351772
0.000137609996,0.458329538
0.000146065025,0.444866523
0.000158747569,0.426726205
0.000168309602,0.414427357
0.000178978639,0.401885438
0.000189647676,0.390417357
0.000200316712,0.379878134
0.00021238263,0.368929515
0.000232576826,0.352549168
0.000246039624,0.3427681
0.000259502421,0.333758418
0.000284984607,0.318487399
0.000310466793,0.30513737
0.000338173207,0.292370399
0.000370328078,0.279389258
0.00040248295,0.267996614
0.000426726189,0.260272582
0.000453776086,0.252395896
0.000494350932,0.241816229
0.000521400829,0.23546008
0.000555533928,0.228111867
0.000589667027,0.221411298
0.000623800126,0.215268507
0.000679468768,0.206261667
0.000744075396,0.197103734
0.000787146482,0.19163533
0.000830217568,0.186598193
0.000911741887,0.178060465
0.000993266207,0.170596726
0.00108190643,0.163458965
0.00115048778,0.158512182
0.00121906913,0.153988943
0.00132194115,0.147876011
0.001408481,0.143261126
0.00149502084,0.13905298
0.00158156069,0.135195135
0.00166810054,0.13164154
0.00177730144,0.127533302
0.00188650234,0.12378715
0.00199570324,0.120352841
0.00210490414,0.117189379
0.00231159801,0.111827451
0.00251829187,0.107140018
0.00274302714,0.102657308
0.00300384522,0.0980994018
0.00326466329,0.0940992464
0.00357101271,0.0899725213
0.00379042276,0.0873296941
0.00411953785,0.0837687008
0.00436767492,0.0813544051
0.00464453901,0.0788923952
0.0049214031,0.0766411833
0.00519826719,0.0745723095
0.00551138066,0.0724230715
0.00603542494,0.0692075757
0.0063847878,0.0672875335
0.00673415066,0.0655189168
0.00739541955,0.0625211913
0.00805668843,0.0599005622
0.00877567659,0.0573943913
0.00961010329,0.0548461819
0.01044453,0.0526097994
0.0110736479,0.0510935695
0.0117755993,0.0495473753
0.0128285264,0.047470589
0.0135304777,0.0462228802
0.0144162399,0.0447804319
0.0153020021,0.0434651176
0.0161877643,0.0422592964
0.0170735265,0.0411485742
0.0181912316,0.0398644936
0.0198677892,0.0381455494
0.0215443469,0.0366313836
0.0234221735,0.0351324064
0.0257714706,0.0334929789
0.0280757337,0.0320892573
0.0298554363,0.0311182337
0.0325249903,0.0298139968
0.0354275579,0.0285667284
0.0376732878,0.0277023206
0.0399190178,0.0269119266
0.0421647478,0.0261855535
0.0447045077,0.0254309679
0.0475382976,0.0246614726
0.0503720874,0.0239578651
0.0532058773,0.0233112497
0.0581986094,0.0222891269
0.0635623652,0.021328172
0.068926121,0.0204817018
0.0756944133,0.0195448106
0.0824627055,0.0187257842
0.0898217723,0.0179425387
0.0955155164,0.0173997216
0.10120926,0.0169033857
0.109749877,0.0162326211
0.116934567,0.0157262427
0.127711602,0.0150483849
0.134896292,0.0146423512
0.143021662,0.014220551
0.156620739,0.0135895038
0.165686789,0.0132126996
0.17475284,0.0128656178
0.191912928,0.0122773434
0.209073015,0.0117630863
0.227730932,0.0112713054
0.249384507,0.0107712933
0.271038082,0.0103324851
0.287363844,0.0100349905
0.305579653,0.00973162614
0.332903365,0.00932417562
0.362612045,0.00893454091
0.385597788,0.00866452016
0.408583531,0.00841762906
0.431569274,0.0081907446
0.457564505,0.0079550575
0.486569223,0.0077147246
0.5300763,0.00739194012
0.57738092,0.00708327914
0.632280625,0.00676946997
0.687180329,0.00649408965
0.751663945,0.00621002729
0.797847658,0.00602812754
0.867123229,0.00578305859
0.948492322,0.00553027067
1.00676956,0.005368402
1.09418541,0.0051503266
1.1600928,0.00500249625
1.23363033,0.00485176387
1.30716786,0.00471395616
1.3807054,0.00458732767
1.46387108,0.0044557996
1.60306185,0.00425905979
1.74225261,0.00408644021
1.90574208,0.00390840932
2.0813809,0.00374108447
2.25701972,0.00359374168
2.40477376,0.00348254122
2.62640481,0.00333373341
2.84803587,0.00320270811
3.03448032,0.00310383082
3.22092477,0.00301370041
3.50059144,0.00289231098
3.71144677,0.00281004996
3.94671298,0.00272619924
4.18197919,0.00264956276
4.4172454,0.00257916564
4.8317508,0.00246795599
5.27705923,0.00236348851
5.72236766,0.00227154671
6.28428317,0.00216988349
6.84619868,0.0020811084
7.45716134,0.00199631036
7.92986597,0.00193760626
8.40257061,0.00188398001
9.11162756,0.00181159391
9.70811316,0.00175702071
10.6028416,0.00168407825
11.1993272,0.00164045422
11.8739097,0.00159519651
13.0029289,0.00152761537
13.7556083,0.00148734386
14.5082878,0.00145030939
15.9329484,0.00138768697
16.8827222,0.00135051831
17.8324959,0.0013164338
19.5058614,0.00126271628
21.3035792,0.00121241829
23.101297,0.00116830314
24.6136054,0.00113513434
26.1259138,0.0011050032
28.3943764,0.00106459845
30.104689,0.00103734773
32.0130058,0.00100969282
33.9213226,0.000984537912
36.7837977,0.000950769011
40.3958317,0.000913743223
42.8038544,0.000891910316
45.211877,0.000871997433
47.8079163,0.000852398179
50.5919721,0.00083325312
53.630552,0.000814277083
56.9236561,0.000795667279
62.4044612,0.000768481483
68.1558408,0.000744122211
73.9072203,0.000723203017
79.8347087,0.000704582469
84.3099173,0.000692185107
93.2603347,0.000670938766
99.3655498,0.000658722083
105.470765,0.000648050498
114.628588,0.000634507899
121.533149,0.000625972838
129.237057,0.000617909718
136.940965,0.000611199443
153.90118,0.000600468119
162.271321,0.000596935515
179.011602,0.000592846148
189.809371,0.000592090625
201.5872,0.000592789684
210.9374,0.000594407654
224.02768,0.000598176056
236.448941,0.000603318453
248.3382,0.00060964056
267.0386,0.0006223482
276.85631,0.000630392122
292.519372,0.000645248063
304.4394,0.000658291039
313.7896,0.000669627634
332.49,0.000695417782
341.8402,0.000709985575
360.5406,0.000742816507
368.51709,0.000758450875
383.9161,0.0007917003
393.2663,0.000814042435
407.2916,0.000850961732
416.6418,0.000878079226
430.6671,0.000922980728
444.6924,0.000973621209
458.7177,0.00103090018
472.743,0.00109591619
483.262208,0.00115055831
496.1185,0.00122528346
500.7936,0.00125488812
510.1438,0.00131846051
520.662775,0.00139773765
527.675425,0.00145574687
534.688075,0.00151838622
541.700725,0.00158615411
548.713375,0.00165961897
555.726025,0.00173943147
562.738675,0.00182633914
568.58255,0.0019048003
575.5952,0.00200705317
580.2703,0.00208065123
587.28295,0.00220014668
594.2956,0.00233188567
599.48425,0.00243824826
605.98335,0.00258351353
612.996,0.00275728784
617.6711,0.00288426911
624.68375,0.00309382772
631.6964,0.00332971176
634.03395,0.00341496145
638.70905,0.00359654844
642.215375,0.00374330438
645.7217,0.00390003358
648.05925,0.00401051519
652.73435,0.00424724263
655.0719,0.00437416774
659.747,0.00464705285
664.4221,0.00494825581
669.0972,0.0052818594
673.7723,0.00565271227
677.278625,0.00595874052
680.78495,0.00629182213
683.1225,0.00653051736
686.628825,0.00691628388
688.966375,0.0071937691
692.4727,0.00764401606
694.81025,0.00796922619
698.316575,0.00849925448
701.8229,0.00908643552
705.329225,0.00973933536
708.83555,0.010468191
712.341875,0.0112853175
713.51065,0.0115798005
715.8482,0.0122056364
718.18575,0.0128853471
720.5233,0.0136253252
721.692075,0.0140201751
724.029625,0.0148647313
725.782788,0.0155507128
727.53595,0.0162866274
728.704725,0.0168074139
731.042275,0.0179288318
732.21105,0.018533155
734.5486,0.0198395068
735.717375,0.0205463022
738.054925,0.0220807518
739.808088,0.0233497757
741.56125,0.0247337402
743.314413,0.0262469965
744.483187,0.027335784
745.651963,0.0284949855
747.405125,0.0303796096
748.5739,0.0317436214
749.742675,0.0332031085
751.495838,0.0355916547
752.664612,0.0373323228
753.833388,0.0392057456
755.002162,0.0412257978
756.024939,0.0431261331
757.193714,0.0454652406
757.9241,0.0470261254
759.092875,0.0496984602
760.26165,0.052607926
761.430425,0.055783462
762.5992,0.0592585588
763.767975,0.063072144
764.93675,0.0672696764
766.105525,0.071904504
766.689912,0.0744051419
767.74181,0.0792499272
768.910585,0.0852138866
769.61185,0.0891235101
770.07936,0.0918823128
770.780625,0.0962685744
771.48189,0.100978505
772.183155,0.106044725
772.88442,0.111504064
773.585685,0.117398225
774.28695,0.123774576
774.988215,0.130687105
775.68948,0.138197548
776.390745,0.146376764
776.858255,0.152240932
777.325765,0.158465613
778.02703,0.168545285
778.49454,0.175810003
778.96205,0.18355546
779.663315,0.196170932
780.130825,0.205318383
780.598335,0.215121082
781.2996,0.231195514
781.76711,0.242933313
782.23462,0.255587189
782.70213,0.269254489
783.16964,0.284045759
783.63715,0.300086932
784.10466,0.317521953
784.57217,0.336515934
785.03968,0.357258968
785.50719,0.37997076
785.740945,0.392143062
786.091577,0.411521405
786.559088,0.439660235
786.792843,0.45481651
787.143475,0.479051671
787.37723,0.496291537
787.727863,0.523933453
787.961617,0.543651806
788.31225,0.575360912
788.546005,0.598049273
788.896637,0.634651331
789.130392,0.660927102
789.481025,0.703464407
789.71478,0.734110747
790.065412,0.78391234
790.416045,0.838865149
790.766678,0.899688256
791.11731,0.967227237
791.467942,1.04248092
791.818575,1.12663467
791.935452,1.15690053
792.169207,1.22110207
792.286085,1.25516666
792.51984,1.32757715
792.753595,1.40622243
792.98735,1.49180908
793.104227,1.53745253
793.337982,1.63499395
793.571738,1.74170525
793.805493,1.85870869
793.980809,1.95398263
794.214564,2.09220734
794.448319,2.24474093
794.682074,2.41347268
794.915829,2.60057897
795.032706,2.70179189
795.208022,2.8641561
795.3249,2.9799824
795.441777,3.10235421
795.558655,3.23171454
795.733971,3.43990347
795.850849,3.58887806
795.967726,3.74664201
796.084604,3.91378575
796.25992,4.18346499
796.376798,4.37686663
796.552114,4.68915883
796.72743,5.03030893
796.902746,5.40290973
797.078062,5.80957466
797.253379,6.25282294
797.428695,6.73491
797.545572,7.07877307
797.66245,7.44102205
797.849454,8.05903802
797.942956,8.3854979
798.12996,9.0714133
798.410466,10.1706096
798.924727,12.2689032
799.111731,12.986022
799.251984,13.4779521
799.345486,13.7758744
799.438988,14.0446508
799.53249,14.2800588
799.625992,14.4781868
799.719494,14.6355837
799.812996,14.7494014
799.906498,14.81752
799.995325,14.8387131
800.093502,14.8123596
800.187004,14.7391624
800.280506,14.620426
800.374008,14.4583417
800.46751,14.2558192
800.561012,14.0163595
800.654514,13.7439117
800.748016,13.4427226
800.888269,12.9466729
801.075273,12.2254944
801.589534,10.1231051
801.776538,9.38235152
801.963542,8.67696178
802.057044,8.33995916
802.244048,7.70012461
802.395989,7.2149524
802.571305,6.69396114
802.688183,6.36930044
802.80506,6.06220502
802.921938,5.7720541
803.097254,5.36705621
803.27257,4.99606076
803.447886,4.65644223
803.623202,4.34560147
803.798519,4.06103811
803.973835,3.80039393
804.149151,3.56147598
804.324467,3.34226571
804.499784,3.14091888
804.6751,2.95575964
804.791978,2.84055797
804.967294,2.67908064
805.084171,2.57842747
805.259487,2.43707868
805.376365,2.34880402
805.61012,2.18525763
805.726998,2.10946349
805.960753,1.96865839
806.194507,1.84084589
806.311385,1.78134426
806.54514,1.67032227
806.778895,1.56896283
807.01265,1.47622185
807.246405,1.39118611
807.48016,1.31305508
807.713915,1.24112555
807.94767,1.17477838
808.181425,1.11346722
808.41518,1.05670889
808.765813,0.979184342
808.999568,0.932037314
809.233322,0.888140338
809.583955,0.827772204
809.81771,0.790815347
810.051465,0.756232337
810.402097,0.708386739
810.75273,0.66486702
811.103363,0.625174899
811.453995,0.588880744
811.804628,0.555612706
812.15526,0.52504777
812.389015,0.506032307
812.856525,0.470936205
813.09028,0.454724755
813.55779,0.424687185
813.791545,0.410759531
814.259055,0.384861751
814.726565,0.361313249
814.96032,0.350332954
815.42783,0.329807927
815.778463,0.315563933
816.129095,0.302214601
816.596605,0.285682352
817.064115,0.27045887
817.531625,0.256410467
818.23289,0.237288818
818.7004,0.225696037
819.16791,0.214926012
819.63542,0.204903113
820.10293,0.195560165
820.57044,0.18683734
821.03795,0.178681221
821.50546,0.171043995
821.97297,0.163882767
822.44048,0.157158967
823.141745,0.147818347
823.609255,0.142043327
824.076765,0.136598015
824.77803,0.128995212
825.479295,0.122005975
826.18056,0.115566258
827.11558,0.107739132
827.58309,0.104118599
828.51811,0.0974010678
828.98562,0.0942820129
829.92064,0.0884744861
830.38815,0.085768683
831.089415,0.0819355225
831.79068,0.0783521713
832.491945,0.0749974529
833.310088,0.071347364
834.478863,0.0665754951
835.647637,0.0622641287
836.816413,0.0583560303
837.985187,0.0548025729
839.153963,0.0515622307
840.322737,0.048599372
841.491512,0.0458832848
842.660288,0.0433873842
843.244675,0.0422146629
844.41345,0.0400066599
845.582225,0.0379664685
847.335388,0.0351852081
848.504162,0.0334964678
849.672937,0.0319257502
851.4261,0.0297678585
853.179263,0.0278203735
854.932425,0.026056884
856.685587,0.0244549904
858.43875,0.022995596
860.191912,0.0216623396
861.945075,0.0204411391
863.698238,0.0193198213
865.4514,0.0182878196
867.78895,0.0170350091
868.957725,0.0164560894
871.295275,0.0153829693
872.46405,0.0148851584
874.217212,0.0141823448
875.970375,0.0135279304
877.13915,0.0131163859
879.4767,0.0123474647
880.645475,0.0119880099
882.983025,0.0113144591
885.320575,0.0106959183
887.658125,0.0101265816
889.995675,0.00960138826
892.333225,0.0091159105
894.670775,0.00866626115
897.008325,0.00824901636
899.345875,0.00786115094
901.683425,0.00749998399
904.020975,0.00716313298
906.358525,0.0068484748
908.696075,0.00655411263
911.033625,0.00627834765
914.53995,0.00589627605
916.8775,0.0056606611
919.21505,0.00543893552
922.721375,0.00513009053
925.058925,0.00493864986
927.396475,0.00475778817
930.9028,0.00450468744
935.5779,0.00419769553
937.91545,0.00405594056
942.59055,0.00379336589
944.9281,0.00367164975
949.6032,0.00344537905
951.94075,0.00334012296
954.548457,0.00322838745
957.852164,0.00309484086
963.6285,0.0028808222
968.3036,0.00272378908
970.64115,0.00265016125
975.31625,0.00251181691
977.6538,0.00244678798
982.3289,0.00232431026
989.34155,0.00215768434
994.01665,0.00205672058
1001.0293,0.00191858603
1005.7044,0.00183443366
1010.3795,0.00175597479
1015.0546,0.00168271526
1019.7297,0.00161421323
1024.4048,0.00155007269
1029.0799,0.0014899379
1033.755,0.00143348858
1040.76765,0.00135510038
1044.27397,0.00131850039
1051.28662,0.00125000705
1054.79295,0.0012179409
1061.8056,0.0011577809
1065.31192,0.00112954695
1072.32457,0.00107645468
1082.84355,0.00100442292
1089.8562,0.00096090338
1099.2064,0.000907812505
1108.5566,0.000859739294
1117.9068,0.000816097837
1122.5819,0.000795779117
1131.9321,0.000757865287
1141.2823,0.000723253858
1155.3076,0.000676778262
1164.6578,0.000648993997
1174.008,0.000623474938
1188.0333,0.000588974885
1202.0586,0.000558459882
1216.69514,0.000530300642
1225.4341,0.000515078585
1234.7843,0.000499981467
1248.8096,0.000479431207
1258.1598,0.000467001521
1276.8602,0.000444855001
1295.5606,0.000425906002
1313.32598,0.000410482413
1323.14369,0.00040292396
1342.3116,0.000389951642
1357.73943,0.000381073924
1375.97232,0.000372204905
1389.0626,0.000366835082
1407.763,0.00036049829
1426.93091,0.000355517747
1446.09882,0.000351965485
1464.55189,0.000349818127
1492.23148,0.000348820103
1519.91108,0.000350390439
1548.016,0.00035456741
1574.665,0.000360955238
1601.5675,0.000369886898
1628.47,0.00038146454
1655.3725,0.000395911622
1682.275,0.000413534594
1691.2425,0.00042018153
1709.1775,0.00043473912
1718.145,0.000442690353
1736.08,0.000460053063
1745.0475,0.000469516937
1762.9825,0.000490158651
1771.95,0.000501404189
1789.885,0.00052593744
1798.8525,0.000539313055
1816.7875,0.000568533582
1825.755,0.000584493586
1843.69,0.000619443887
1857.14125,0.000648611934
1870.5925,0.000680647987
1879.56,0.000703771309
1888.5275,0.000728444584
1897.495,0.000754800004
1910.94625,0.000797813458
1921.77395,0.000835814364
1929.50132,0.000864980746
1942.3325,0.000917602168
1951.3,0.000957823525
1960.2675,0.00100121081
1973.71875,0.00107296743
1982.68625,0.00112582559
1987.17,0.00115392789
1996.1375,0.00121379756
2005.105,0.00127903396
2009.58875,0.00131386498
2018.55625,0.00138840758
2025.28187,0.00144898952
2032.0075,0.00151401076
2036.49125,0.00156004037
2045.45875,0.00165919412
2054.42625,0.00176892149
2058.91,0.00182822454
2067.8775,0.00195681311
2072.36125,0.00202660309
2079.08687,0.00213896254
2083.57063,0.00221945969
2090.29625,0.00234950965
2094.78,0.00244301815
2101.50562,0.00259467262
2108.23125,0.00276163006
2114.95687,0.00294602069
2121.6825,0.00315035933
2128.40812,0.00337763174
2135.13375,0.0036314046
2141.85938,0.00391596654
2144.10125,0.00401852986
2148.585,0.00423651088
2150.82687,0.00435241183
2155.31063,0.00459937448
2157.5525,0.00473103135
2162.03625,0.00501235369
2164.27812,0.0051627588
2168.76188,0.00548512677
2171.00375,0.00565801789
2175.4875,0.00602982601
2179.97125,0.00644034518
2184.455,0.00689514316
2188.042,0.00729526032
2192.07737,0.00778924014
2194.31925,0.00808601772
2197.0095,0.00846544694
2200.5965,0.00901499334
2204.1835,0.00962062856
2205.977,0.0099468938
2209.564,0.0106519014
2211.3575,0.0110331796
2214.04775,0.0116450868
2215.84125,0.0120820416
2218.5315,0.0127855302
2220.325,0.0132895313
2223.01525,0.0141037902
2225.7055,0.0149958507
2228.39575,0.0159759232
2230.18925,0.016684013
2232.8795,0.0178383067
2235.56975,0.019117291
2238.26,0.0205395189
2240.95025,0.0221271083
2241.847,0.0226974908
2243.6405,0.0239065903
2244.53725,0.0245477473
2246.33075,0.0259100022
2248.12425,0.0273889193
2249.46938,0.0285827876
2250.8145,0.029856379
2252.608,0.0316910877
2253.50475,0.0326723847
2255.29825,0.0347764136
2257.09175,0.0370896608
2258.88525,0.0396405322
2260.67875,0.0424623652
2262.47225,0.0455944785
2263.369,0.04729113
2264.26575,0.0490834879
2265.1625,0.0509787913
2266.05925,0.0529849663
2266.956,0.0551107047
2267.85275,0.0573655526
2268.7495,0.0597600112
2269.64625,0.0623056513
2270.543,0.0650152446
2271.43975,0.0679029121
2272.3365,0.0709842954
2273.68163,0.0760080816
2274.57838,0.0796540101
2275.9235,0.0856248485
2276.82025,0.0899781233
2278.16538,0.0971424185
2279.06212,0.10239233
2279.5105,0.105174098
2280.40725,0.111078887
2280.85563,0.114214024
2281.75238,0.120883052
2282.20075,0.124431571
2283.0975,0.131996883
2283.54587,0.136031423
2284.44263,0.144653254
2284.891,0.149262182
2285.78775,0.15913593
2286.46031,0.167167792
2287.13288,0.175792298
2287.80544,0.185065443
2288.478,0.195049417
2289.15056,0.205813338
2290.04731,0.221512526
2290.71987,0.234410192
2291.16825,0.243597262
2291.61663,0.253292039
2292.28919,0.268861455
2292.73756,0.279980147
2293.18594,0.291736938
2293.63431,0.304175077
2294.08269,0.317340703
2294.53106,0.33128293
2294.97944,0.34605391
2295.42781,0.361708843
2295.87619,0.37830593
2296.32456,0.395906239
2296.77294,0.414573467
2297.22131,0.434373556
2297.66969,0.455374137
2298.11806,0.477643744
2298.79063,0.51357675
2299.239,0.539314094
2299.91156,0.580744608
2300.58412,0.625713955
2301.3912,0.684494579
2302.1086,0.741148506
2302.826,0.801732223
2303.9021,0.898802357
2305.87495,1.08402029
2306.59235,1.14728153
2307.1304,1.19065783
2307.4891,1.21691594
2307.8478,1.24059452
2308.2065,1.26132109
2308.5652,1.27875081
2308.9239,1.29257968
2309.2826,1.30255717
2309.6413,1.30849711
2309.98207,1.31029621
2310.3587,1.30788939
2310.7174,1.30135136
2311.0761,1.29079463
2311.4348,1.27641378
2311.7935,1.2584666
2312.1522,1.23726297
2312.5109,1.21315215
2312.8696,1.18650945
2313.40765,1.14264827
2314.12505,1.07890938
2316.0979,0.893210572
2316.8153,0.827808042
2317.5327,0.765536963
