energy [eV],cross section [b]
1e-05,110.535072
1.05989175e-05,107.366634
1.14972936e-05,103.086613
1.20962111e-05,100.50216
1.2766869e-05,97.8268046
1.38804664e-05,93.8205613
1.53652631e-05,89.1723149
1.67456417e-05,85.4179469
1.81260203e-05,82.1010629
1.961663e-05,78.9201304
2.13277018e-05,75.6881597
2.30387736e-05,72.8232872
2.43161269e-05,70.8847388
2.5730119e-05,68.9094893
2.78511071e-05,66.2336478
3.01414681e-05,63.6674829
3.1894206e-05,61.8933464
3.36469438e-05,60.2597092
3.53996817e-05,58.7489549
3.73623687e-05,57.1850627
3.95350047e-05,55.5915626
4.27939587e-05,53.4328713
4.49665947e-05,52.1260385
4.76597225e-05,50.6318663
5.16994143e-05,48.6134939
5.57391061e-05,46.8187273
6.07465747e-05,44.8475427
6.4084887e-05,43.6638174
6.90923556e-05,42.0517873
7.32304174e-05,40.8463881
7.94375101e-05,39.2180987
8.56446028e-05,37.7701996
9.07740076e-05,36.6875297
9.59034124e-05,35.6929249
0.000101032817,34.7750595
0.000106162222,33.9245471
0.000112520463,32.9521104
0.000118878704,32.0587725
0.000125236944,31.2343606
0.000135535918,30.0242066
0.000147358116,28.7946353
0.000159180314,27.7047226
0.000172890651,26.5835258
0.000187545057,25.5238019
0.000202199464,24.5814795
0.000214309543,23.8768556
0.000226419621,23.2295463
0.00024458474,22.3502755
0.000258145406,21.7553068
0.00027315666,21.1490739
0.000288167914,20.5908501
0.000303179168,20.0746161
0.000319988522,19.5402243
0.000338595977,18.9957151
0.000357203432,18.4943269
0.000375810887,18.0306533
0.000408179801,17.3009534
0.00044277758,16.6112611
0.00047737536,15.9979761
0.000520261626,15.3244071
0.000563147891,14.7293263
0.000609458868,14.1586359
0.000644899134,13.7640846
0.0006803394,13.4007787
0.000733499799,12.9060182
0.000777430382,12.5360594
0.000821360966,12.1961931
0.000909222133,11.5919199
0.000990904484,11.1038501
0.00104535938,10.8107566
0.00109981429,10.5397093
0.00116079198,10.2591281
0.00122829248,9.97323436
0.00132954323,9.58593755
0.00143887942,9.2145142
0.0015643865,8.83713027
0.00168989358,8.50260985
0.00178358742,8.2762522
0.00188730371,8.04560855
0.00204287814,7.73315797
0.00221087608,7.43351285
0.00233943937,7.22635029
0.00246800265,7.03559295
0.00259656594,6.85918392
0.00274052899,6.67656943
0.0028998918,6.49049695
0.00313893601,6.23842605
0.00329829881,6.08582612
0.00349583969,5.91134966
0.003792151,5.67566023
0.00408846231,5.46608017
0.00445576003,5.23589741
0.00470062517,5.09766823
0.00506792289,4.90942249
0.00537144964,4.76866013
0.00582673977,4.57851237
0.00628202989,4.40942827
0.00665827163,4.28299394
0.00703451337,4.16684281
0.0074107551,4.05965239
0.00778699684,3.96032669
0.00825337368,3.84676111
0.00871975051,3.74243184
0.00918612735,3.64615106
0.00965250418,3.55693433
0.0102306095,3.45492674
0.0110977675,3.3171294
0.0119649255,3.19459533
0.0130398259,3.06001346
0.0137564262,2.97919326
0.0148313266,2.86912765
0.0157196006,2.78682383
0.0170520117,2.67564234
0.0183844228,2.57677484
0.0194854979,2.50284421
0.0205865731,2.43492531
0.0216876483,2.37224502
0.0240443617,2.2528573
0.0253,2.19617266
0.0267740746,2.13478224
0.0282481492,2.07826005
0.0299399802,2.01860273
0.0324777266,1.93801165
0.0350154731,1.86634437
0.0381611798,1.787627
0.0402583176,1.74035297
0.0434040243,1.67596975
0.0460035671,1.62782362
0.0499028813,1.56278121
0.0538021955,1.50493897
0.0570245029,1.4616835
0.0602468103,1.4219433
0.0634691177,1.38526638
0.0666914251,1.35127811
0.070685691,1.31241407
0.0746799569,1.27670775
0.0786742228,1.24375314
0.0826684887,1.21321375
0.0876196488,1.1782926
0.0950463889,1.13111296
0.102473129,1.08915249
0.111679071,1.04305815
0.120885013,1.00232587
0.130826101,0.963254005
0.138433689,0.936235593
0.149845071,0.89962574
0.162167716,0.864506342
0.17159783,0.84021987
0.181027945,0.817851618
0.19045806,0.797161209
0.201017746,0.775737904
0.212707005,0.753903177
0.224396264,0.733791965
0.236085522,0.71518832
0.249174961,0.695924632
0.26366458,0.676289793
0.285399009,0.649679379
0.308869055,0.624146006
0.335810335,0.598187546
0.362751615,0.575162958
0.393995723,0.551461417
0.416259404,0.536216921
0.449654926,0.51549635
0.48838409,0.49416337
0.515981414,0.480440411
0.571176062,0.456018714
0.605384793,0.442575452
0.639593525,0.430216201
0.708010987,0.408217044
0.771617009,0.390422503
0.814021023,0.379724175
0.856425037,0.36982151
0.93018966,0.354218115
1.00903358,0.339446407
1.08787751,0.326289535
1.18560983,0.311813239
1.25076471,0.303105543
1.34849704,0.291227993
1.42926088,0.282330872
1.51002472,0.274144659
1.63117049,0.263003693
1.71526431,0.255960761
1.8026881,0.249157176
1.90280029,0.241937347
2.07200117,0.230920521
2.25814483,0.220228614
2.38224059,0.213791224
2.50633636,0.207826069
2.72220926,0.198413565
2.95294679,0.189486975
3.18368431,0.181522703
3.37436072,0.175549905
3.56503713,0.170049002
3.85105175,0.162554365
4.18274614,0.154816092
4.41910232,0.149826052
4.65545851,0.145209502
4.89181469,0.140921599
5.345128,0.133484916
5.88408098,0.125755513
6.42689947,0.118948906
6.97165072,0.112913854
7.60050147,0.106753017
8.21887092,0.101385478
8.58494185,0.0984809338
9.3170837,0.0931890568
9.70181277,0.090650266
10.4712709,0.0859994563
11.0292873,0.0829377969
11.5491493,0.0802904174
12.2455833,0.0770174708
12.937282,0.0740401429
13.3968361,0.0721960611
14.3159442,0.0687917606
15.2708651,0.065606846
16.225786,0.0627310064
17.0831929,0.0603785817
17.7455718,0.0586939031
18.5585149,0.0567689856
19.2254121,0.0552973039
20.4131604,0.0528922348
21.9968248,0.0500654345
22.8688,0.0486727821
24.490528,0.0463556578
25.8785329,0.0446260582
27.2665378,0.0431066167
28.4012209,0.0420083624
29.535904,0.04103146
30.707152,0.0401442418
31.8784,0.0393754881
33.38,0.0385584559
34.626328,0.0380223818
35.797576,0.0376365827
37.216588,0.0373257851
38.049976,0.0372260309
39.3864,0.037200731
40.1372,0.0372633164
41.255892,0.0374666032
42.3946145,0.0378198802
43.3923382,0.038263129
44.349188,0.0388183679
45.328982,0.0395341987
46.372594,0.0404817142
46.8944,0.0410354469
47.6452,0.0419363633
48.591208,0.0432669672
49.537216,0.044847927
50.167888,0.0460617168
50.783544,0.0473866339
51.6658958,0.0495603914
52.420288,0.0517156752
53.20112,0.0542854021
53.80176,0.0565347602
54.432432,0.0591924775
55.00304,0.0618971038
55.30336,0.0634495312
55.904,0.0668556715
56.50464,0.0707190486
56.80496,0.0728463849
57.25544,0.0763140748
57.55576,0.0788295817
58.00624,0.0829462747
58.30656,0.0859450978
58.75704,0.0908752265
59.05736,0.0944839783
59.50784,0.100448239
59.80816,0.104838372
60.25864,0.112138531
60.55896,0.117546852
60.70912,0.120432645
61.00944,0.126604329
61.1596,0.129906664
61.45992,0.136990371
61.61008,0.140792407
61.83532,0.146853078
62.06056,0.153381866
62.2858,0.160427907
62.51104,0.168046986
62.73628,0.176302642
62.96152,0.185267498
63.07414,0.190041445
63.29938,0.200230189
63.56216,0.213315672
63.7874,0.225697668
63.93756,0.234623688
64.08772,0.244142246
64.343443,0.261871517
64.493603,0.273278021
64.61328,0.282955714
64.76344,0.295902038
64.9136,0.309826785
65.06376,0.324831148
65.21392,0.341029775
65.36408,0.358552969
65.51424,0.377549337
65.6644,0.398188958
65.81456,0.420667226
65.96472,0.445209506
66.11488,0.472076836
66.18996,0.486475412
66.34012,0.517415411
66.4152,0.534052792
66.56536,0.569933591
66.64044,0.589299932
66.7906,0.631234222
66.90322,0.665804102
67.01584,0.703394359
67.12846,0.744367984
67.24108,0.789144239
67.3537,0.838209458
67.42878,0.873578443
67.50386,0.911294569
67.61648,0.972741582
67.69156,1.01731103
67.76664,1.06508785
67.84172,1.11638779
67.9168,1.1715665
67.99188,1.23102566
68.06696,1.29522035
68.1045,1.32925247
68.17958,1.40154258
68.21712,1.43995805
68.2922,1.52176609
68.32974,1.56535227
68.40482,1.65842763
68.4799,1.76018969
68.55498,1.87175529
68.59252,1.93161317
68.6676,2.06039412
68.74268,2.20266841
68.81776,2.36039092
68.89284,2.53588388
68.93038,2.63114112
68.96792,2.7319229
69.00546,2.83866509
69.043,2.95184744
69.08054,3.07199896
69.13685,3.26658877
69.17439,3.40685919
69.21193,3.55643636
69.24947,3.71616248
69.28701,3.88697721
69.32455,4.06993149
69.36209,4.26620374
69.39963,4.47711887
69.43717,4.70417063
69.47471,4.94904815
69.51225,5.21366734
69.54979,5.50020846
69.56856,5.65246423
69.6061,5.97666728
69.64364,6.32971744
69.68118,6.71513991
69.71872,7.13701471
69.73749,7.36307457
69.77503,7.84876369
69.81257,8.38430585
69.83134,8.67292974
69.86888,9.29687654
69.883896,9.56549261
69.910174,10.0644779
69.932698,10.523989
69.958976,11.1010707
69.973992,11.4524306
70.004024,12.2071758
70.034056,13.0391508
70.064088,13.959241
70.09412,14.9803137
70.116644,15.8214842
70.139168,16.7355315
70.154184,17.3896002
70.1692,18.0827494
70.184216,18.8181458
70.199232,19.5992824
70.214248,20.4300194
70.229264,21.3146313
70.24428,22.2578612
70.259296,23.2649837
70.274312,24.3418774
70.289328,25.4951096
70.304344,26.732035
70.31936,28.0609109
70.334376,29.4910326
70.3569,31.8493787
70.371916,33.5816169
70.386932,35.4583963
70.401948,37.4961418
70.41321,39.1412976
70.424472,40.896466
70.439488,43.4251826
70.446996,44.7777872
70.462012,47.6781998
70.46952,49.2343884
70.484536,52.5822735
70.492044,54.384568
70.503306,57.2651072
70.510814,59.3132002
70.522076,62.5953599
70.533338,66.1544255
70.5446,70.0220001
70.555862,74.2342545
70.567124,78.8327281
70.578386,83.865295
70.589648,89.3873347
70.60091,95.4631557
70.608418,99.8578852
70.615926,104.557077
70.627188,112.239141
70.634696,117.829761
70.642204,123.838453
70.653466,133.727664
70.660974,140.974753
70.668482,148.809433
70.67599,157.294718
70.683498,166.501938
70.691006,176.512013
70.698514,187.41695
70.706022,199.321597
70.71353,212.345688
70.721038,226.626239
70.724792,234.285911
70.730423,246.485327
70.734177,255.126145
70.739808,268.913945
70.743562,278.698107
70.749193,294.340052
70.752947,305.461049
70.758578,323.274324
70.762332,335.963122
70.767963,356.326248
70.771717,370.858287
70.777348,394.222082
70.782979,419.636977
70.78861,447.314989
70.794241,477.488994
70.799872,510.41323
70.805503,546.362939
70.811134,585.632705
70.816765,628.532828
70.822396,675.382866
70.828027,726.501179
70.831781,763.101416
70.835535,801.813845
70.839289,842.707115
70.84492,908.243353
70.8494248,964.338099
70.8539296,1023.65156
70.859936,1107.49179
70.8659424,1196.13048
70.8869648,1521.36717
70.8914696,1586.71451
70.8959744,1647.10367
70.8989776,1683.71701
70.9019808,1716.78637
70.904984,1745.7939
70.9079872,1770.25902
70.9109904,1789.75683
70.9139936,1803.93559
70.9169968,1812.53201
70.92,1815.3833
70.9230032,1812.43469
70.9260064,1803.74206
70.9290096,1789.46931
70.9320128,1769.8807
70.935016,1745.32888
70.9380192,1716.23951
70.9410224,1683.09376
70.9440256,1646.40992
70.9485304,1585.92662
70.9545368,1497.89219
70.9710544,1240.84801
70.980064,1106.40081
70.9860704,1022.55419
70.9890736,982.659274
70.9935784,925.487418
70.996957,884.746609
71.000711,841.629306
71.006342,781.127341
71.011973,725.458606
71.017604,674.361373
71.023235,627.533723
71.026989,598.529975
71.03262,558.108616
71.036374,533.081129
71.040128,509.484319
71.043882,487.231672
71.047636,466.240539
71.05139,446.432386
71.055144,427.732902
71.058898,410.072017
71.062652,393.38385
71.066406,377.60659
71.07016,362.682359
71.073914,348.557038
71.077668,335.18008
71.081422,322.504315
71.08893,299.083415
71.096438,277.977163
71.103946,258.910254
71.1077,250.065602
71.115208,233.619697
71.118962,225.97015
71.12647,211.709081
71.130224,205.058349
71.137732,192.628005
71.141486,186.816435
71.148994,175.928215
71.152748,170.8254
71.160256,161.243037
71.16401,156.741962
71.171518,148.271095
71.175272,144.283502
71.18278,136.763441
71.186534,133.216179
71.194042,126.5134
71.205304,117.348523
71.212812,111.769081
71.224074,104.102894
71.231582,99.4137331
71.242844,92.9420916
71.250352,88.9665054
71.25786,85.2364685
71.265368,81.732495
71.272876,78.4369618
71.280384,75.3339033
71.287892,72.4088307
71.2954,69.6485734
71.302908,67.0411402
71.310416,64.5755963
71.325432,60.0310837
71.340448,55.9448766
71.355464,52.2579649
71.37048,48.9204481
71.377988,47.3692041
71.393004,44.4782366
71.40802,41.84191
71.423036,39.4313961
71.430544,38.3029049
71.44556,36.1854981
71.453068,35.1915605
71.468084,33.3218886
71.475592,32.4420609
71.490608,30.7831527
71.498116,30.00071
71.52064,27.8233633
71.543164,25.873469
71.565688,24.1205606
71.588212,22.5390853
71.603228,21.5692226
71.625752,20.2272077
71.640768,19.4006271
71.663292,18.252228
71.678308,17.5421304
71.700832,16.5519373
71.715848,15.9374902
71.730864,15.3565058
71.74588,14.8066055
71.775912,13.7915554
71.790928,13.3226011
71.82096,12.4534787
71.850992,11.6664596
71.881024,10.9515436
71.907302,10.3784054
71.941088,9.7051387
71.97112,9.16005893
72.00866,8.54079378
72.0462,7.98212613
72.06497,7.72308032
72.10251,7.2413547
72.12128,7.01718453
72.15882,6.59891878
72.17759,6.40364456
72.21513,6.03818133
72.2339,5.86705042
72.27144,5.5458764
72.30898,5.25032853
72.32775,5.11132229
72.36529,4.8493492
72.4216,4.49255082
72.45914,4.27609711
72.51545,3.97957959
72.55299,3.79869516
72.59053,3.62985787
72.62807,3.47202283
72.68438,3.253883
72.72192,3.11967576
72.75946,2.99360029
72.797,2.87501371
72.83454,2.76333537
72.87208,2.65803981
72.90962,2.55865052
72.94716,2.46473462
73.02224,2.29178194
73.09732,2.13642625
73.1724,1.99636273
73.20994,1.93144707
73.28502,1.8107802
73.3601,1.70109771
73.43518,1.60110827
73.47272,1.55439616
73.5478,1.46691953
73.62288,1.38664822
73.69796,1.31281395
73.7355,1.27809832
73.81058,1.21269297
73.84812,1.1818668
73.96074,1.0961629
74.07336,1.01950977
74.18598,0.950680824
74.2986,0.888650492
74.37368,0.850642156
74.4863,0.798092285
74.59892,0.750323589
74.71154,0.706777128
74.78662,0.679852282
74.89924,0.642311016
74.97432,0.619019137
75.12448,0.576162654
75.235,0.547471465
75.29188,0.53355813
75.40564,0.507327624
75.492575,0.488611517
75.64285,0.458712847
75.82318,0.426488573
76.00351,0.397739804
76.12373,0.380279474
76.30406,0.356364075
76.42428,0.341796778
76.60461,0.321806431
76.72483,0.309620339
76.90516,0.292912164
77.02538,0.282756045
77.20571,0.268915074
77.32593,0.260588507
77.44615,0.252976087
77.56637,0.246089126
77.68659,0.239958396
77.80681,0.234640693
77.92703,0.230229123
77.98714,0.228406025
78.10736,0.225650636
78.16747,0.224787731
78.257635,0.22426961
78.317745,0.224535769
78.377855,0.225389669
78.437965,0.226942837
78.498075,0.229340137
78.558185,0.232772122
78.618295,0.237493073
78.6633775,0.242082727
78.6934325,0.245744158
78.720482,0.249516895
78.76857,0.257538325
78.792614,0.262288608
78.816658,0.267617085
78.852724,0.276867069
78.876768,0.284010679
78.900812,0.292070118
78.936878,0.306190341
78.960922,0.317215366
78.972944,0.323291325
78.996988,0.33673234
79.00901,0.344173006
79.033054,0.36071642
79.045076,0.369923548
79.063109,0.385074925
79.081142,0.40205267
79.099175,0.42114574
79.117208,0.442702333
79.135241,0.467144958
79.153274,0.494990147
79.171307,0.526874466
79.177318,0.53853165
79.18934,0.563589243
79.195351,0.577065636
79.207373,0.606127454
79.213384,0.621809313
79.225406,0.655747813
79.231417,0.674128207
79.243439,0.714063556
79.2524555,0.747112979
79.261472,0.783167181
79.2704885,0.822591717
79.279505,0.865808423
79.2885215,0.913305903
79.2945325,0.947625949
79.3005435,0.984290239
79.30956,1.04415298
79.3185765,1.11059455
79.327593,1.18458333
79.333604,1.23866026
79.339615,1.29698916
79.3486315,1.39343576
79.3546425,1.46445178
79.3606535,1.54153124
79.3666645,1.62535402
79.3726755,1.71669315
79.3786865,1.81642962
79.3846975,1.92556953
79.3907085,2.04526426
79.3967195,2.17683404
79.4027305,2.32179527
79.4087415,2.4818923
79.4147525,2.65913383
79.417758,2.75489389
79.423769,2.96229988
79.4267745,3.07466028
79.42978,3.19331207
79.4327855,3.31868021
79.4372937,3.52032947
79.4402992,3.66454858
79.4448075,3.89689847
79.447813,4.06332541
79.4523212,4.33181818
79.4553267,4.52435717
79.459835,4.8352594
79.4643432,5.17493158
79.4688515,5.54601884
79.4733598,5.95122001
79.4763653,6.24162163
79.4793708,6.54911138
79.483879,7.04384523
79.4868845,7.396797
79.48989,7.76868441
79.4946988,8.40330365
79.4971032,8.7386204
79.501912,9.44335703
79.5091252,10.5734003
79.5235516,12.9238095
79.5283604,13.6484415
79.531967,14.1394756
79.5343714,14.4333908
79.5367758,14.6953395
79.5391802,14.9211009
79.5415846,15.106844
79.543989,15.2492807
79.5463934,15.3458044
79.5502404,15.4005574
79.5524044,15.3765561
79.5548088,15.3040227
79.5572132,15.1845576
79.5596176,15.0203773
79.562022,14.8144418
79.5644264,14.5703261
79.5668308,14.2920729
79.5692352,13.9840379
79.5728418,13.4760329
79.5776506,12.7364342
79.5908748,10.5761848
79.5956836,9.81407344
79.6004924,9.08800539
79.6028968,8.74102059
79.6077056,8.08206916
79.6116127,7.58226877
79.616121,7.04545242
79.6191265,6.71087234
79.622132,6.39435495
79.6251375,6.09526774
79.6296457,5.67774185
79.634154,5.29521478
79.6386622,4.94499306
79.6416677,4.72813762
79.6446732,4.5236831
79.6491815,4.23863843
79.6536897,3.97746303
79.658198,3.73795974
79.6627062,3.51811106
79.6672145,3.31607694
79.6717228,3.13018746
79.6747283,3.01447836
79.6792365,2.85221407
79.682242,2.75102192
79.688253,2.56386111
79.6912585,2.47727216
79.6972695,2.3166823
79.700275,2.24217986
79.706286,2.10363172
79.712297,1.97769512
79.7153025,1.91900661
79.7213135,1.80939256
79.7273245,1.70918626
79.7333355,1.61738144
79.7393465,1.53309695
79.742352,1.49352938
79.748363,1.41910515
79.754374,1.35043883
79.760385,1.28696717
79.766396,1.22819199
79.772407,1.17367171
79.778418,1.12301407
79.784429,1.07586983
79.79044,1.0319274
79.796451,0.990908217
79.802462,0.952562721
79.808473,0.916666887
79.814484,0.883019226
79.820495,0.851438175
79.8295115,0.807587264
79.838528,0.76753216
79.85055,0.719308624
79.862572,0.676240289
79.868583,0.656413979
79.880605,0.619792125
79.892627,0.586770599
79.904649,0.556893103
79.91066,0.543010108
79.922682,0.517141572
79.934704,0.493554086
79.952737,0.46188784
79.97077,0.434037954
79.988803,0.409410501
80.006836,0.387522181
80.024869,0.367976622
80.042902,0.350446358
80.060935,0.334659009
80.078968,0.320386568
80.103012,0.303385666
80.115034,0.295647837
80.139078,0.281497616
80.1511,0.27501687
80.175144,0.263097003
80.187166,0.257607102
80.21121,0.247457167
80.247276,0.23403134
80.27132,0.22610035
80.295364,0.218866414
80.33143,0.209141492
80.367496,0.200563688
80.4065675,0.19235014
80.45165,0.184029547
80.4967325,0.17673196
80.541815,0.170279253
80.57187,0.166376141
80.63198,0.159374492
80.662035,0.156220506
80.722145,0.150493471
80.782255,0.145421804
80.842365,0.140890659
80.93253,0.134915474
80.99264,0.131380722
81.05275,0.128142975
81.17297,0.122398082
81.29319,0.11742615
81.41341,0.113050741
81.59374,0.107340911
81.71396,0.103978545
81.89429,0.0994516633
82.01451,0.0967156863
82.19484,0.0929555245
82.43528,0.0884646651
82.5555,0.0864047773
82.79594,0.0825931841
83.1566,0.0775112724
83.51726,0.0730369146
83.87792,0.0690489632
84.23858,0.0654619504
84.47902,0.0632614916
84.71946,0.061195979
85.08012,0.0583235523
85.561,0.0548617718
85.92166,0.0525050498
86.28232,0.0503281087
86.64298,0.0483117862
87.00364,0.0464397102
87.48452,0.0441438642
87.9654,0.0420510733
88.20584,0.0410732032
88.92716,0.0383827325
89.64848,0.0360115724
90.12936,0.0345838635
90.61024,0.0332644279
91.33156,0.0314659624
92.05288,0.0298584347
92.750156,0.0284630946
93.49552,0.0271232213
94.361104,0.0257405753
94.8492,0.0250347412
95.69096,0.0239306895
96.53272,0.0229583832
97.16404,0.0223095056
97.79536,0.0217263757
98.6694554,0.0210252855
99.47888,0.0204875243
99.89976,0.0202523047
100.74152,0.0198817862
101.1624,0.0197523019
101.58328,0.019665651
102.00416,0.0196279125
102.42504,0.0196472538
102.84592,0.0197347156
103.2668,0.019905377
103.47724,0.0200281415
103.89812,0.0203652954
104.21378,0.0207159518
104.52944,0.0211726959
104.8451,0.0217631225
105.16076,0.0225250922
105.3712,0.0231537284
105.58164,0.0239026645
105.68686,0.0243303756
105.84469,0.0250497822
105.94991,0.0255883194
106.05513,0.0261805955
106.16035,0.026833255
106.26557,0.0275540129
106.37079,0.0283518688
106.47601,0.0292373716
106.63384,0.0307577674
106.73906,0.0319219313
106.84428,0.033228489
