energy [eV],cross section [b]
1e-05,4380.2529
1.06101525e-05,4252.43947
1.15253812e-05,4080.10139
1.21355337e-05,3976.20651
1.28201434e-05,3868.58078
1.35792104e-05,3758.89821
1.43382773e-05,3658.04503
1.50973442e-05,3564.89684
1.59490405e-05,3468.40371
1.73655288e-05,3323.93388
1.92541799e-05,3156.69884
2.10163778e-05,3021.45451
2.27785757e-05,2902.22474
2.46841348e-05,2787.94783
2.61456559e-05,2708.90186
2.7607177e-05,2636.219
2.97994587e-05,2537.3914
3.16176801e-05,2463.34908
3.43450122e-05,2363.51349
3.61632336e-05,2303.32702
3.82033335e-05,2240.9792
4.04653119e-05,2177.43976
4.27272902e-05,2119.01514
4.49892686e-05,2065.05398
4.75272772e-05,2009.15499
5.17483358e-05,1925.4627
5.73764139e-05,1828.58209
6.26276682e-05,1750.23371
6.78789225e-05,1681.16252
7.35573856e-05,1614.96036
7.79126394e-05,1569.16783
8.22678932e-05,1527.06144
8.88007739e-05,1469.80878
9.42189753e-05,1426.91455
0.000102346277,1369.07752
0.000107764479,1334.20999
0.000113843866,1298.09021
0.000120584439,1261.27996
0.000127325012,1227.43274
0.000134065585,1196.17122
0.000141628714,1163.78693
0.00015420724,1115.30068
0.000166785766,1072.40807
0.00018141091,1028.25849
0.000197059364,986.573667
0.000212707817,949.57743
0.000225686238,921.859292
0.000245153869,884.484855
0.0002646215,851.314075
0.000280767446,826.461951
0.000296913393,803.665285
0.00031305934,782.655486
0.000329205287,763.210663
0.00034929183,740.927958
0.000369378372,720.48813
0.000389464915,701.650369
0.000409551458,684.215734
0.000434540342,664.236516
0.000472023669,637.296694
0.000509506996,613.386529
0.000556138541,587.083796
0.000602770085,563.894716
0.000653195277,541.668016
0.000691870268,526.293106
0.000749882754,505.500152
0.000812614769,485.56993
0.000860728816,471.783436
0.000908842864,459.106224
0.000956956912,447.397045
0.00101094234,435.266859
0.00107079915,422.904248
0.00113065596,411.536236
0.00119051277,401.036178
0.0012949067,384.495881
0.00140660498,368.877725
0.00151830327,355.015097
0.00165726275,339.764211
0.00179622223,326.317612
0.00194648657,313.427996
0.00206173595,304.511159
0.00217698533,296.31131
0.0023498594,285.160531
0.00249323665,276.805157
0.00270830254,265.537407
0.0028516798,258.743533
0.00301255345,251.704774
0.00328010853,241.164401
0.00345847859,234.826491
0.00363684864,228.95986
0.00396970348,219.087031
0.00419160671,213.167641
0.00441350994,207.699445
0.00480052271,199.084011
0.00521461443,190.946879
0.00562870616,183.722535
0.00597214307,178.308264
0.00631557998,173.340415
0.00683073535,166.600991
0.00742971027,159.660889
0.00785696674,155.201268
0.0082842232,151.089785
0.00871147967,147.283245
0.00950877933,140.87544
0.0100403124,137.032326
0.0105718455,133.48125
0.0111682419,129.800937
0.0118295015,126.048342
0.0128213909,120.970124
0.0138939742,116.098743
0.0151279451,111.143786
0.016361916,106.756114
0.0172849514,103.783395
0.0183083748,100.7515
0.0198435099,96.6471899
0.0219752,91.6706371
0.0230834666,89.3572142
0.0253,85.1897788
0.0267517078,82.7422481
0.0283356477,80.2865227
0.0307115575,76.9605888
0.0322954974,74.9472336
0.0342660153,72.6370284
0.037221792,69.5164309
0.0401775688,66.740906
0.0438547353,63.6805348
0.0463061797,61.8420926
0.0499833463,59.3370665
0.0530330927,57.4559582
0.0576077122,54.9131139
0.0606574585,53.3762727
0.0640611011,51.7891039
0.0687945563,49.7756548
0.0716492421,48.6563815
0.0745039279,47.6002296
0.0797186412,45.8152276
0.0844386964,44.3399666
0.0891587515,42.9797951
0.0962388342,41.1243179
0.105046889,39.0745576
0.113854944,37.259308
0.123379566,35.5116392
0.130684737,34.2979724
0.141642495,32.6500363
0.153491706,31.0629501
0.162579785,29.960555
0.171667864,28.9434362
0.180755943,28.0009755
0.190953045,27.0214958
0.20225917,26.0198906
0.213565294,25.0958188
0.224871419,24.2396738
0.24458999,22.8858805
0.265688253,21.6018284
0.286786516,20.4575748
0.304284867,19.597562
0.330532394,18.4345333
0.35677992,17.3994216
0.378548936,16.6224319
0.400317952,15.9088687
0.422086968,15.2507702
0.443855984,14.6415244
0.470937967,13.9434879
0.511560943,13.003237
0.552183918,12.170643
0.585875558,11.548728
0.602721377,11.2582419
0.636413017,10.7138151
0.653258837,10.4583474
0.686950476,9.97756495
0.707907704,9.69712046
0.749822159,9.17456038
0.791736613,8.69755783
0.833651068,8.26045582
0.880680365,7.81168168
0.932824503,7.35914101
0.958896572,7.14870379
1.01104071,6.75608252
1.03711278,6.57270879
1.09452617,6.19613133
1.12586749,6.00500181
1.18855013,5.65001623
1.21989146,5.48496233
1.2825741,5.17711578
1.32266681,4.99441186
1.36301823,4.82069398
1.44372107,4.50085861
1.52442392,4.21351913
1.56477534,4.08063939
1.64547819,3.8340889
1.71487023,3.6405191
1.78426226,3.46208055
1.8536543,3.29721612
1.92304634,3.14456954
1.98506079,3.01751865
2.04707524,2.89852727
2.13362931,2.74467135
2.22018338,2.6036241
2.27218236,2.52446357
2.37618032,2.37746548
2.48743288,2.23518495
2.61362921,2.09013333
2.7475147,1.9526989
2.85159958,1.85607168
2.92588384,1.79198994
3.0001681,1.73162722
3.11159449,1.64746452
3.23207207,1.56424767
3.29591084,1.52312827
3.42358837,1.44649154
3.49415842,1.4070887
3.63529851,1.33398263
3.70586856,1.30005241
3.82367202,1.24695576
3.94147548,1.19792883
4.07728985,1.14597161
4.15157411,1.11944925
4.30014263,1.07007157
4.37442689,1.0470844
4.59727966,0.984232649
4.82013244,0.929505605
4.97546538,0.895558196
5.19155373,0.853391353
5.41440651,0.815384716
5.63725929,0.782300055
5.78582781,0.762712747
5.93439632,0.744945569
6.1001734,0.727132029
6.38010188,0.70152517
6.52867039,0.690078185
6.75152317,0.675551091
6.90009169,0.667579648
7.08580234,0.659513485
7.30865511,0.652626228
7.50453465,0.649149633
7.75436067,0.648414325
7.94007131,0.650782833
8.08863983,0.654657164
8.31149261,0.664199287
8.46006113,0.673410827
8.60862964,0.685288188
8.75719816,0.700271365
8.90576668,0.718932945
9.0543352,0.742025049
9.20290372,0.770547444
9.27718797,0.787249013
9.35147223,0.805848391
9.47060225,0.840277159
9.53718288,0.862390451
9.61146714,0.889906628
9.6857514,0.920865482
9.76003566,0.955818488
9.83431992,0.995436566
9.87146205,1.01724509
9.9457463,1.06546228
9.98288843,1.09215386
10.0571727,1.15154157
10.1128859,1.2021347
10.150028,1.23919445
10.2057412,1.30050215
10.2428833,1.34568089
10.2985965,1.42091357
10.3357387,1.47674154
10.3728808,1.53776254
10.3914519,1.57042343
10.428594,1.64050984
10.4657361,1.71765857
10.4843072,1.75918147
10.5214493,1.84881766
10.5585914,1.94831423
10.5771625,2.00221896
10.6143046,2.11941503
10.6514468,2.25081178
10.6700178,2.32256501
10.6978744,2.43872602
10.7164455,2.5224276
10.7443021,2.65849209
10.7628732,2.75695717
10.7907297,2.91775913
10.8093008,3.03468512
10.8371574,3.2266229
10.8557285,3.36694317
10.8835851,3.59862845
10.9021561,3.76904303
10.9114417,3.85957128
10.9300127,4.05228676
10.9392983,4.1549251
10.9578693,4.37401749
10.9671549,4.49103046
10.9857259,4.74155149
11.004297,5.01644338
11.0135825,5.16402978
11.0321536,5.48178442
11.0414391,5.65299221
11.0600102,6.02301666
11.074867,6.34854045
11.0860097,6.61196915
11.0971523,6.89362457
11.1120092,7.30052255
11.126866,7.74757725
11.1417229,8.2402508
11.1565797,8.78496485
11.1714366,9.38930969
11.1862934,10.0623083
11.1974361,10.6185251
11.2048645,11.0167436
11.2122929,11.4389397
11.2197213,11.8870739
11.2271498,12.3633106
11.2345782,12.870044
11.2420066,13.4099277
11.249435,13.9859095
11.2605777,14.9248464
11.2680061,15.6062746
11.2754345,16.3370673
11.282863,17.1220907
11.2940056,18.4134812
11.301434,19.3596199
11.3051482,19.8609619
11.3125767,20.9253176
11.3200051,22.0795685
11.3292906,23.6647051
11.3385762,25.4302164
11.3422904,26.193069
11.3497188,27.8270401
11.3571472,29.6209183
11.3608614,30.5843642
11.3682899,32.6592715
11.3720041,33.7774977
11.3794325,36.1946357
11.3850038,38.1828681
11.3905751,40.3401597
11.3961465,42.6859662
11.4017178,45.2425792
11.4072891,48.0356274
11.4128604,51.0946821
11.4184317,54.4539923
11.4221459,56.8797451
11.4258602,59.4699002
11.4314315,63.6963823
11.4351457,66.7663611
11.4388599,70.0606592
11.4444312,75.471145
11.4481454,79.4275668
11.4518597,83.6970466
11.4555739,88.3124139
11.4592881,93.3107446
11.4630023,98.7340048
11.4667165,104.629802
11.4704307,111.052263
11.4741449,118.063066
11.4778591,125.732643
11.4797163,129.839217
11.4834305,138.651687
11.4871447,148.347143
11.4890018,153.56091
11.492716,164.799468
11.4945731,170.859349
11.4982873,183.957901
11.5001444,191.039966
11.5029301,202.396299
11.5047872,210.494402
11.5075728,223.504173
11.5103585,237.643748
11.5131442,253.029903
11.5159298,269.791292
11.5187155,288.068961
11.5215011,308.01649
11.5233583,322.323895
11.5252154,337.498712
11.528001,362.005183
11.5307867,388.770907
11.5335723,417.983926
11.5354294,438.909092
11.5372866,461.052746
11.5391437,484.458944
11.541465,515.545444
11.5436007,545.973511
11.5465721,591.224182
11.5488006,627.322851
11.551772,678.094649
11.5547434,731.379003
11.5629146,882.361324
11.565886,934.025737
11.5681145,969.499031
11.5696002,991.001004
11.5710859,1010.4168
11.5725716,1027.44202
11.5740573,1041.79423
11.5755429,1053.22378
11.5770286,1061.52406
11.5785143,1066.54054
11.58,1068.17776
11.5822285,1064.24557
11.5837142,1057.43718
11.5851999,1047.41842
11.5866856,1034.37201
11.5881713,1018.52832
11.589657,1000.15557
11.5911426,979.549225
11.5933712,945.135863
11.5963425,894.370039
11.6052566,729.787866
11.6097137,650.685333
11.6126851,601.360064
11.6141708,577.892302
11.6171421,533.479594
11.6189992,507.45502
11.6208563,482.756401
11.623642,448.137562
11.6264277,416.315665
11.6292133,387.12665
11.631999,360.387983
11.6347846,335.910747
11.6375703,313.507797
11.6394274,299.635541
11.6422131,280.294445
11.6440702,268.308504
11.6459273,256.996219
11.6477844,246.315105
11.65057,231.390052
11.6524272,222.117184
11.6542843,213.345979
11.6561414,205.044595
11.6579985,197.183291
11.6598556,189.734316
11.6635698,175.971603
11.667284,163.569867
11.6709982,152.367161
11.6747124,142.22294
11.6784266,133.015165
11.6821409,124.637747
11.6858551,116.998329
11.6895693,110.016367
11.6914264,106.749583
11.6951406,100.624637
11.6969977,97.7520658
11.7007119,92.3540358
11.702569,89.8167031
11.7062832,85.0383956
11.7081403,82.7875867
11.7118546,78.540235
11.7137117,76.5355065
11.719283,70.9528381
11.7248543,65.949489
11.7304256,61.4496753
11.7341398,58.6974938
11.7397112,54.8994182
11.7434254,52.5664049
11.7489967,49.3336929
11.7527109,47.34013
11.7582822,44.567492
11.7619964,42.8514774
11.7675678,40.4567071
11.771282,38.9696499
11.7768533,36.8878893
11.7805675,35.5912605
11.7879959,33.1950057
11.7954244,31.033173
11.8028528,29.0764503
11.8102812,27.2999262
11.8177096,25.6823272
11.8251381,24.2054041
11.8325665,22.8534339
11.8399949,21.612815
11.8474233,20.4717345
11.8511375,19.9352508
11.858566,18.9245825
11.8659944,17.9900691
11.877137,16.7151119
11.8845655,15.9404278
11.8919939,15.2195202
11.9031365,14.2285569
11.9142792,13.3336714
11.9254218,12.5228959
11.9365644,11.7860624
11.9477071,11.1144888
11.9588497,10.500726
11.9699924,9.93835493
11.981135,9.42182043
11.9885634,9.10051884
12.0034203,8.50757161
12.0108487,8.23369475
12.0257056,7.72623501
12.033134,7.49092738
12.0479908,7.05334531
12.0591335,6.75143044
12.068419,6.5154116
12.085133,6.12283713
12.0999898,5.80513105
12.1185609,5.44433827
12.1371319,5.11900969
12.155703,4.82466859
12.1742741,4.5575218
12.1928451,4.3143383
12.2021307,4.20085254
12.2207017,3.98855178
12.2392728,3.79400568
12.2671294,3.53136257
12.2857005,3.37337321
12.3042715,3.22745853
12.3321281,3.02866439
12.3506992,2.90803964
12.3692703,2.79590841
12.3971268,2.64197494
12.4249834,2.50318588
12.45284,2.37764188
12.4806966,2.26373215
12.5085532,2.16008349
12.5456954,2.03583775
12.5642664,1.97902758
12.6014086,1.87476603
12.6199796,1.82687497
12.6571218,1.73861319
12.6756928,1.69790702
12.7128349,1.62260725
12.731406,1.58775418
12.7499771,1.55460965
12.7871192,1.49303174
12.8428324,1.41108532
12.8985456,1.33980985
12.9542588,1.27751879
13.009972,1.2228483
13.0656852,1.17468602
13.1399694,1.11903632
13.1771116,1.09438562
13.2513958,1.05052415
13.288538,1.03100865
13.3628222,0.996164139
13.3999643,0.980616655
13.4742486,0.952804811
13.585675,0.918151981
13.6599592,0.899028673
13.7342435,0.88261614
13.8085278,0.868585714
13.9199542,0.851416613
14.0313805,0.838245104
14.1056648,0.831389734
14.1799491,0.825906387
14.3285176,0.818590487
14.4028018,0.816566275
14.5513704,0.815404487
14.6559563,0.816685529
14.7742231,0.820036414
14.9227917,0.826895701
15.0713602,0.836512077
15.2942129,0.855812362
15.4056393,0.867588346
15.6284921,0.895351422
15.8513449,0.928823651
15.9627713,0.94777961
16.1299109,0.979128289
16.2599083,1.00605368
16.4084768,1.03972896
16.5570453,1.07672177
16.7056139,1.11730427
16.8674491,1.16597211
17.0041864,1.21106727
17.1330367,1.25721765
17.3263122,1.33383907
17.4551625,1.39041793
17.5840128,1.45192301
17.7128632,1.51888152
17.7772883,1.55459176
17.9061387,1.63089501
18.034989,1.71434546
18.1065878,1.7641208
18.2067894,1.83825466
18.3356398,1.94201571
18.42154,2.01702111
18.5503903,2.13933185
18.6792406,2.27488078
18.808091,2.42561029
18.9369413,2.59383791
19.0657916,2.78234646
19.194642,2.99450061
19.2375921,3.07115695
19.3234923,3.23439898
19.3664424,3.32136882
19.4523426,3.50707495
19.4952927,3.60628769
19.581193,3.81876455
19.6241431,3.93262536
19.7100433,4.1772687
19.7959435,4.44704569
19.8818437,4.7455218
19.9677439,5.07692007
20.0321691,5.35006533
20.0965943,5.6470213
20.1395444,5.85961254
20.2039696,6.20281196
20.2683947,6.57845829
20.3328199,6.99078309
20.37577,7.28845198
20.4401952,7.77331822
20.5046203,8.31006384
20.5690455,8.90638107
20.6334707,9.57144488
20.6978958,10.3162699
20.7193709,10.5844941
20.762321,11.1541715
20.8052711,11.7723491
20.8482212,12.4447054
20.8696963,12.8032052
20.9126464,13.5693942
20.9341214,13.979113
20.9770715,14.8574826
21.0092841,15.5728978
21.0414967,16.3423001
21.0737093,17.1712719
21.1059219,18.0661367
21.1381344,19.0340808
21.1757158,20.266708
21.2106128,21.5235215
21.2468519,22.9585491
21.2837622,24.5751334
21.3206724,26.371154
21.3394631,27.3630863
21.359596,28.4900577
21.3783866,29.6066727
21.3985195,30.8783445
21.4173102,32.1414717
21.4361008,33.4845713
21.4548915,34.9145458
21.4736822,36.4390588
21.4924729,38.0666377
21.5139479,40.0651817
21.5327386,41.9470895
21.5542136,44.2663056
21.5730043,46.4584514
21.5944794,49.1708224
21.6159544,52.1297047
21.6374295,55.3659051
21.6589045,58.9151938
21.6803796,62.8192944
21.6911171,64.9193621
21.7072234,68.273683
21.7179609,70.6571986
21.730846,73.686732
21.7415835,76.3634209
21.7555423,80.0678442
21.7652061,82.7933235
21.7780911,86.6501037
21.7888286,90.0745365
21.8017136,94.4596528
21.8145987,99.1740428
21.8274837,104.251468
21.8403687,109.730121
21.8532538,115.653339
21.8661388,122.070458
21.8790238,129.037833
21.8919089,136.620067
21.9004989,142.052736
21.9090889,147.81627
21.921974,157.142535
21.930564,163.859249
21.939154,171.015929
21.952039,182.662705
21.9606291,191.100407
21.9692191,200.135834
21.9821041,214.937535
21.9906941,225.734857
21.9992842,237.364654
22.0078742,249.914275
22.0164642,263.482761
22.0250542,278.182754
22.0336442,294.142791
22.0422343,311.510048
22.0529718,335.458081
22.0615618,356.649951
22.0658568,368.002059
22.0722993,386.066786
22.0808894,412.281381
22.0851844,426.393202
22.0916269,448.946919
22.0959219,464.982367
22.1023644,490.679108
22.1066594,508.999547
22.1131019,538.443139
22.117397,559.49756
22.1238395,593.441605
22.1281345,617.792917
22.134577,657.186754
22.138872,685.547538
22.1453145,731.599121
22.151757,782.364396
22.1581996,838.494561
22.1646421,900.754224
22.1710846,970.045173
22.1775271,1047.43591
22.1796746,1075.24595
22.1839696,1134.19855
22.1861171,1165.45688
22.1904121,1231.85502
22.1947072,1303.90038
22.1990022,1382.2258
22.2011497,1423.96465
22.2054447,1513.09009
22.2097397,1610.48757
22.2140347,1717.15844
22.2183297,1834.24971
22.221551,1929.69126
22.225846,2068.30267
22.230141,2221.44628
22.234436,2391.05801
22.2365835,2482.72375
22.2398048,2629.66046
22.2419523,2734.40325
22.2440998,2845.00062
22.2462473,2961.8477
22.2494685,3149.76996
22.251616,3284.15677
22.2548373,3500.64234
22.2569848,3655.68954
22.2602061,3905.79716
22.2623536,4085.13341
22.2655748,4374.68658
22.2687961,4690.99545
22.2720174,5036.51666
22.2752386,5413.75588
22.2773861,5684.09049
22.2795336,5970.30929
22.2827549,6430.77238
22.2849024,6759.24128
22.2870499,7105.30361
22.2904859,7695.78769
22.2922039,8007.75246
22.2956399,8663.33981
22.3007939,9714.37475
22.311102,11899.589
22.314538,12572.9769
22.317115,13029.1487
22.318833,13302.1177
22.320551,13545.3238
22.322269,13754.8443
22.323987,13927.1195
22.325705,14059.0951
22.327423,14148.3507
22.33,14198.6872
22.331718,14175.6086
22.333436,14107.6023
22.335154,13995.9483
22.336872,13842.7118
22.33859,13650.6497
22.340308,13423.0903
22.342026,13163.7966
22.343744,12876.8223
22.346321,12403.6613
22.3497571,11714.9577
22.3592061,9704.03883
22.3643601,8652.22822
22.3677961,7996.28525
22.3712321,7383.19508
22.3729501,7093.50629
22.3750976,6747.36749
22.3783189,6261.10912
22.3815401,5813.2397
22.3836876,5535.07209
22.3869089,5146.78005
22.3890564,4906.17439
22.3912039,4679.30686
22.3933514,4465.43217
22.3954989,4263.81556
22.3976464,4073.74115
22.3997939,3894.51789
22.4019414,3725.48359
22.4040889,3566.00743
22.4062364,3415.49133
22.408384,3273.37042
22.4105315,3139.11288
22.412679,3012.21925
22.4148265,2892.22144
22.4180477,2724.20414
22.4201952,2619.59202
22.4223427,2520.46501
22.4266377,2337.31313
22.4309328,2172.26695
22.4330803,2095.84879
22.4373753,1954.01299
22.4395228,1888.16046
22.4438178,1765.6075
22.4459653,1708.55474
22.4502603,1602.10261
22.4524078,1552.41684
22.4567028,1459.47918
22.4588503,1415.99352
22.4631453,1334.45946
22.4652928,1296.21938
22.4695879,1224.35818
22.4717354,1190.57909
22.4760304,1126.96465
22.4781779,1096.99846
22.4824729,1040.44981
22.4889154,963.292629
22.4932104,916.416649
22.4996529,852.132854
22.5039479,812.885974
22.5103905,758.815602
22.5146855,725.656396
22.5189805,694.585784
22.5232755,665.434966
22.5275705,638.051556
22.5318655,612.297745
22.5361605,588.048682
22.5404555,565.191068
22.5447505,543.621916
22.5490456,523.24746
22.5533406,503.982197
22.5576356,485.748042
22.5662256,452.093388
22.5748156,421.780749
22.5834056,394.386124
22.5877007,381.668542
22.5962907,357.993966
22.6048807,336.43562
22.6134707,316.750578
22.6184168,306.183153
22.6263558,290.285456
22.6306508,282.191425
22.6392408,266.978984
22.6435358,259.826349
22.6521258,246.350848
22.6564208,239.999943
22.6693059,222.344167
22.6821909,206.555
22.6950759,192.379594
22.707961,179.606319
22.716551,171.780588
22.729436,160.961934
22.738026,154.304359
22.7509111,145.062457
22.7595011,139.352459
22.7723861,131.396235
22.7809762,126.462783
22.7895662,121.800641
22.7981562,117.390344
22.8110412,111.20869
22.8196313,107.353633
22.8368113,100.218701
22.8539913,93.769005
22.8711714,87.9197722
22.8883514,82.5989169
22.907679,77.1681715
22.9270065,72.2537384
22.9420391,68.7475052
22.9635141,64.1632459
22.9742516,62.0404745
22.9957267,58.0979344
23.0064642,56.265549
23.0279393,52.8505739
23.0386768,51.258044
23.0601519,48.2807401
23.0708894,46.88805
23.0923645,44.2768581
23.1138395,41.8770537
23.124577,40.7493789
23.1460521,38.6259934
23.1675271,36.6637441
23.1782647,35.7380097
23.1997397,33.9883214
23.2319523,31.5944007
23.2534274,30.1357735
23.2749024,28.7755177
23.2963775,27.5050016
23.3178525,26.3165187
23.3393276,25.2031714
23.3608026,24.1587711
23.3822777,23.1777529
23.4037527,22.2551014
23.4252278,21.3862871
23.4467029,20.5672111
23.4681779,19.7941566
23.489653,19.0637475
23.511128,18.372911
23.5540781,17.0989949
23.5970282,15.9527716
23.6185033,15.4222902
23.6614534,14.4375396
23.693666,13.7594367
23.7258786,13.1279027
23.7688287,12.3511781
23.8117788,11.6412744
23.8332538,11.3090169
23.876204,10.6857314
23.897679,10.393209
23.9406291,9.84303832
23.9621042,9.58417517
24.0050543,9.09614514
24.0265293,8.86598249
24.0909545,8.22555939
24.1553797,7.65210087
24.2198048,7.13661303
24.2627549,6.82138809
24.3271801,6.38636776
