energy [eV],cross section [b]
1e-05,3008.34868
1.05829434e-05,2924.31645
1.14573585e-05,2810.50591
1.23317736e-05,2709.02574
1.30506462e-05,2633.3537
1.37695188e-05,2563.68772
1.48478277e-05,2468.83461
1.56505127e-05,2404.68609
1.65370102e-05,2339.33984
1.8310005e-05,2223.1863
1.9299858e-05,2165.41963
2.03930665e-05,2106.57437
2.25794836e-05,2001.97631
2.44742079e-05,1922.9136
2.6496388e-05,1848.07159
2.8518568e-05,1781.33788
3.10122747e-05,1708.20868
3.35059814e-05,1643.40324
3.61935133e-05,1581.2019
3.82436351e-05,1538.22945
4.02937568e-05,1498.57965
4.33689394e-05,1444.46266
4.58971031e-05,1404.10836
4.96893487e-05,1349.4535
5.50404313e-05,1282.16365
5.97169427e-05,1230.92345
6.59522912e-05,1171.27486
7.17192591e-05,1123.18233
7.74862271e-05,1080.56351
8.37014371e-05,1039.65694
9.08131314e-05,998.102809
9.79248257e-05,961.161328
0.000103218717,936.17776
0.000109065371,910.727451
0.000117835351,876.164285
0.000127286985,842.989497
0.000134496946,820.070045
0.000148916868,779.329664
0.000156967429,759.06779
0.000165858589,738.427254
0.00017919533,710.395835
0.00018808649,693.387991
0.000199050868,674.003939
0.000215497435,647.75005
0.000231944002,624.33973
0.000252225536,598.684946
0.000272507069,575.949361
0.000294365001,554.126473
0.00031103882,539.049337
0.000336049549,518.573005
0.000352723367,506.148883
0.000373285143,491.988687
0.000393846919,478.951808
0.000424689583,461.200593
0.000447648629,449.194876
0.000473004946,436.964372
0.000523717579,415.222809
0.000567664573,398.787337
0.000598933409,388.210915
0.000630202244,378.431085
0.00068075109,364.069035
0.00073859112,349.478124
0.00079643115,336.505425
0.000863262504,323.16942
0.000910813848,314.587182
0.000982140864,302.90064
0.00103523616,294.99606
0.0010938754,286.942939
0.00118183426,276.004745
0.0012404735,269.367197
0.00131278608,261.80141
0.00138509867,254.835054
0.00145741125,248.392838
0.00157431095,238.931158
0.00170807232,229.3173
0.0018864208,218.12232
0.00205137228,209.093084
0.00221632377,201.088884
0.00239409623,193.403651
0.00252970586,188.092542
0.00266531548,183.190758
0.00286872992,176.498193
0.00303596063,171.5058
0.00328680671,164.741469
0.00364076535,156.408507
0.00384699049,152.090633
0.00405321562,148.105042
0.00448970941,140.589402
0.00487117766,134.861962
0.005379802,128.189236
0.00585022001,122.80448
0.00632063802,118.028606
0.00682761964,113.440704
0.00740772848,108.77585
0.00798783732,104.624778
0.00841966596,101.815059
0.00889658402,98.9507543
0.00961196111,95.0572033
0.0100888792,92.6926486
0.0106770037,89.9955907
0.0112651283,87.5103964
0.0118532528,85.2105424
0.0128040083,81.8297072
0.0138919012,78.3905337
0.0153424249,74.3803
0.0166839897,71.1412723
0.0180255545,68.2662752
0.0194713935,65.5024068
0.0211257809,62.6901076
0.0222287058,60.9898759
0.023823723,58.7402132
0.0253,56.8478793
0.0270360194,54.8212357
0.0296106622,52.1458369
0.0312879092,50.5810538
0.0329651563,49.1356129
0.0346424033,47.7950309
0.0365151983,46.4072462
0.0396177129,44.3258546
0.0416860559,43.0677412
0.0437543989,41.8989038
0.0475803497,39.939174
0.0514063004,38.200487
0.0551165271,36.689035
0.0588417074,35.3168004
0.0614072948,34.4449025
0.0665384697,32.8545081
0.0704172859,31.7694083
0.0762355101,30.3000971
0.0801143263,29.4112038
0.0844453686,28.4925174
0.091620271,27.1180143
0.0964035393,26.2894329
0.101186808,25.5213902
0.110107704,24.2280488
0.1190286,23.0869854
0.128418302,22.0212491
0.139329365,20.92652
0.150240429,19.9593693
0.160853357,19.120389
0.167829265,18.6158372
0.18178108,17.7021764
0.189758188,17.2296958
0.200820016,16.6263626
0.211881844,16.076142
0.222943673,15.5724341
0.234005501,15.1097339
0.24453356,14.7032063
0.255542741,14.3096515
0.266551923,13.9450697
0.277561104,13.606589
0.293249224,13.1645147
0.30728604,12.8046497
0.319429116,12.5175551
0.343715268,12.002529
0.362948432,11.6435041
0.38572664,11.2662085
0.41710288,10.8192514
0.438836453,10.5521383
0.467189966,10.2486469
0.49554348,9.98978233
0.529758254,9.72906722
0.55829596,9.54968568
0.5896722,9.38802678
0.62104844,9.26010854
0.64419931,9.18566812
0.67557555,9.11001387
0.71517716,9.05354854
0.7465534,9.03821611
0.79361776,9.06223874
0.822961134,9.10539229
0.87205836,9.2263802
0.91912272,9.4016038
0.95049896,9.55246285
0.99756332,9.83388952
1.02893956,10.0614684
1.07600392,10.4699486
1.10738016,10.7923712
1.1387564,11.1602052
1.15444452,11.3628768
1.18582076,11.8098128
1.217197,12.3186697
1.25149872,12.9567844
1.27994948,13.5612217
1.2956376,13.9276773
1.32701384,14.7412433
1.34270196,15.1932069
1.35839008,15.6790242
1.3740782,16.2019355
1.38976632,16.765598
1.40545444,17.3741513
1.42114256,18.0322958
1.43683068,18.7453855
1.46036286,19.9316714
1.47605098,20.8109121
1.4917391,21.7708251
1.50742722,22.8214794
1.51527128,23.384424
1.5309594,24.5937716
1.54807383,26.0549541
1.56233564,27.4016587
1.57959257,29.2119643
1.58900544,30.2937512
1.5968495,31.251818
1.61253762,33.3394905
1.61881287,34.2451633
1.63136337,36.1924231
1.63763862,37.2401726
1.65018911,39.5013654
1.65646436,40.7227342
1.66901486,43.3696121
1.6752901,44.80545
1.6878406,47.9315859
1.69725347,50.5260759
1.70666634,53.3647906
1.71607922,56.4795342
1.72549209,59.9074637
1.73490496,63.6922039
1.74431783,67.8852418
1.7537307,72.5476828
1.76314358,77.7524792
1.77255645,83.5872821
1.7788317,87.8786229
1.78510694,92.5335168
1.78981338,96.2884489
1.79451982,100.291593
1.80079506,106.054185
1.80707031,112.358193
1.81334556,119.2734
1.81962081,126.881111
1.82589606,135.27648
1.8321713,144.571408
1.83844655,154.898164
1.8447218,166.413921
1.84785942,172.674991
1.85099705,179.306521
1.85413467,186.337986
1.85884111,197.706855
1.86197873,205.887282
1.86511636,214.5964
1.86825398,223.880039
1.87296042,238.995359
1.87609804,249.95002
1.88080448,267.864519
1.8839421,280.906805
1.88864854,302.338189
1.89178616,318.018563
1.89335497,326.319206
1.8964926,343.921409
1.89806141,353.258017
1.90119903,373.098391
1.90318715,386.537906
1.90590547,406.104084
1.90747428,418.068922
1.9106119,443.609523
1.91218072,457.247492
1.91531834,486.43069
1.91688715,502.051971
1.92002478,535.564553
1.92159359,553.549234
1.92473121,592.23452
1.92630002,613.050192
1.92943765,657.94736
1.93257527,707.681451
1.9357129,762.908011
1.93728171,792.812513
1.93885052,824.381519
1.94041933,857.727
1.94198814,892.968797
1.94355696,930.235026
1.94512577,969.66244
1.94669458,1011.39675
1.94826339,1055.59283
1.9498322,1102.41485
1.95140102,1152.03621
1.95296983,1204.63927
1.95453864,1260.41475
1.95610745,1319.56084
1.95846067,1415.04765
1.96002948,1483.52147
1.9623827,1593.97645
1.96395151,1673.06929
1.96630473,1800.35387
1.96865795,1938.4665
1.97148181,2118.93531
1.97399191,2292.81571
1.97650201,2478.70051
1.97963963,2725.52955
1.98716993,3344.18943
1.98968003,3538.00214
1.9915626,3670.84477
1.99281765,3751.23181
1.9940727,3823.69118
1.99532775,3887.07849
1.9965828,3940.33351
1.99783785,3982.52092
1.9990929,4012.86896
2.00034795,4030.80328
2.0014775,4036.03563
2.00348557,4019.62008
2.00474062,3992.93123
2.00599567,3954.14912
2.00725072,3903.97191
2.00850577,3843.2766
2.00976082,3773.08203
2.01101587,3694.50855
2.01289845,3563.52818
2.01540855,3370.66967
2.02293884,2747.09537
2.02670399,2447.98955
2.02921409,2261.63482
2.03046914,2173.01149
2.03297924,2005.36054
2.03454805,1907.16337
2.03611686,1813.99785
2.03847008,1683.45977
2.0408233,1563.51831
2.04317652,1453.54449
2.04552974,1352.84142
2.04788295,1260.6896
2.05023617,1176.37755
2.05180498,1124.18569
2.0541582,1051.43929
2.05572701,1006.37031
2.05729583,963.844
2.05886464,923.699457
2.06121786,867.619762
2.06278667,832.787365
2.06435548,799.846645
2.06592429,768.677185
2.0674931,739.166549
2.06906192,711.209852
2.07219954,659.573808
2.07533716,613.064232
2.07847479,571.069631
2.08161241,533.059537
2.08475004,498.573484
2.08788766,467.211334
2.09102528,438.624847
2.09416291,412.510424
2.09573172,400.296012
2.09886934,377.402951
2.10043816,366.670025
2.10357578,346.50827
2.10514459,337.034731
2.10828222,319.200665
2.10985103,310.803124
2.11298865,294.962643
2.11455746,287.488904
2.1192639,266.68716
2.12397034,248.059062
2.12867677,231.319693
2.1318144,221.088959
2.13652083,206.980784
2.13965846,198.321386
2.14436489,186.33215
2.14750252,178.944733
2.15220895,168.679164
2.15534658,162.331404
2.16005301,153.481062
2.16319064,147.990699
2.16789707,140.312374
2.1710347,135.534971
2.17730994,126.717652
2.18358519,118.777866
2.18986044,111.605892
2.19613569,105.108534
2.20241094,99.2062548
2.20868618,93.8308632
2.21496143,88.9236501
2.22123668,84.4338642
2.22751193,80.3174658
2.23378718,76.5361012
2.24006242,73.0562547
2.24633767,69.8485436
2.25261292,66.8871296
2.25888817,64.1492263
2.26516342,61.6146842
2.27143866,59.2656397
2.28085154,56.0556371
2.28712678,54.1046251
2.29340203,52.2906835
2.3028149,49.8037322
2.31222778,47.569933
2.32164065,45.5624753
2.33419114,43.1989
2.34371685,41.6185611
2.35301689,40.2358352
2.36556738,38.5977141
2.37811788,37.1973461
2.38439313,36.5794663
2.395684,35.5968965
2.4082516,34.6875763
2.42076024,33.9647182
2.43326887,33.4160661
2.44577751,33.0374157
2.45203183,32.9114295
2.46454046,32.7871562
2.47079478,32.7899407
2.48330342,32.9298162
2.48955774,33.069471
2.50206637,33.4968149
2.50832069,33.788933
2.52082933,34.5440242
2.5302108,35.2737367
2.53959228,36.1598084
2.54897376,37.2205335
2.55835523,38.4783343
2.56773671,39.960732
2.57711819,41.7016118
2.58649966,43.7428883
2.59588114,46.136715
2.60213546,47.9600798
2.60838978,49.992242
2.61151694,51.0950254
2.61777126,53.4933771
2.62089841,54.797726
2.62715273,57.6417342
2.63027989,59.1927675
2.63653421,62.5854248
2.63966137,64.4419631
2.64435211,67.4508887
2.64904284,70.7581233
2.65373358,74.4015003
2.65686074,77.0386022
2.66155148,81.3435692
2.66624222,86.1191071
2.67093296,91.4323474
2.6756237,97.3625822
2.68031444,104.003903
2.68500517,111.468496
2.68969591,119.890786
2.69125949,122.938106
2.69438665,129.432643
2.69751381,136.510967
2.70064097,144.241179
2.70220455,148.374624
2.70533171,157.231896
2.70845887,166.957011
2.71158602,177.659224
2.7131496,183.415271
2.71627676,195.824336
2.71940392,209.560749
2.72253108,224.803051
2.72565824,241.756849
2.72722182,250.948151
2.7287854,260.658651
2.73034898,270.923393
2.73191256,281.779848
2.73347614,293.268016
2.73582151,311.778706
2.73738509,325.038535
2.73894867,339.091095
2.74051225,353.988464
2.74285762,378.038705
2.74442119,395.292178
2.74598477,413.591167
2.74754835,432.996665
2.74989372,464.313669
2.75223909,498.460633
2.75458446,535.624047
2.75692983,575.957437
2.75974427,628.67264
2.762246,679.476041
2.76474773,733.800279
2.76787489,805.957114
2.77538007,986.941335
2.7778818,1043.69232
2.77975809,1082.61445
2.78100895,1106.18129
2.78225982,1127.43711
2.78351068,1146.047
2.78476155,1161.70047
2.78601241,1174.12343
2.78726327,1183.08947
2.78851414,1188.42977
2.789765,1190.0408
2.7916413,1185.41167
2.79289216,1177.71025
2.79414302,1166.47209
2.79539389,1151.90032
2.79664475,1134.25044
2.79789561,1113.81954
2.79914648,1090.93447
2.80102277,1052.76149
2.8035245,996.518346
2.81228054,784.729665
2.81478227,727.123122
2.81603314,699.469191
2.81853486,646.770571
2.81978573,621.797975
2.82260017,569.061495
2.82416375,541.822984
2.82572733,516.024487
2.8280727,479.935453
2.82963628,457.540414
2.83119986,436.409802
2.83354523,406.951037
2.8358906,379.99027
2.83823596,355.3201
2.84058133,332.741086
2.8429267,312.065189
2.84527207,293.117601
2.84683565,281.366033
2.84918102,264.948385
2.8507446,254.750186
2.85308997,240.479162
2.85465355,231.598894
2.85699892,219.149778
2.8585625,211.388817
2.86168966,197.040356
2.86325324,190.404956
2.8663804,178.104126
2.86950755,166.969757
2.87263471,156.867257
2.87576187,147.679656
2.87888903,139.305145
2.88201619,131.654954
2.88514335,124.651537
2.88827051,118.227006
2.89139767,112.321804
2.89422695,107.382764
2.89765199,101.866143
2.90234272,95.0411813
2.90546988,90.9075567
2.90859704,87.071266
2.91328778,81.8163924
2.91641494,78.6122
2.9195421,75.623279
2.92423284,71.5043191
2.92736,68.9781105
2.93048716,66.6112328
2.93517789,63.3324801
2.93986863,60.3467001
2.94455937,57.6215311
2.94925011,55.1289448
2.95550443,52.1256442
2.96175875,49.4435322
2.9648859,48.2097337
2.97114022,45.9339792
2.97426738,44.8840353
2.9805217,42.942355
2.98364886,42.0443637
2.98990318,40.3801832
2.99303034,39.6090488
3.00241181,37.5134575
3.01179329,35.7060088
3.02117477,34.14524
3.03055624,32.7976233
3.03681056,32.0039616
3.04306488,31.286046
3.05244636,30.3384604
3.06495499,29.2909721
3.07746363,28.4619821
3.0860215,28.0083383
3.09675813,27.5595508
3.1097363,27.1851006
3.12271448,26.9861977
3.13569266,26.9595411
3.14867083,27.1077302
3.15515992,27.2499383
3.1681381,27.6796355
3.17787173,28.1396089
3.18436082,28.5185439
3.1908499,28.9607418
3.19733899,29.4719378
3.20382808,30.0590205
3.21031717,30.7302587
3.21680626,31.4955868
3.22653989,32.8468315
3.23302898,33.9053238
3.23951806,35.1120059
3.24600715,36.4905328
3.2492517,37.2530809
3.25574078,38.9460332
3.25898533,39.8864552
3.26547442,41.984845
3.27034123,43.7771343
3.27358578,45.0918003
3.27683032,46.5138707
3.28169714,48.8736628
3.28656395,51.5461789
3.29143077,54.5861863
3.29629758,58.060506
3.29791986,59.3287788
3.3011644,62.051034
3.30278667,63.5127104
3.30603122,66.6585358
3.30927576,70.1332386
3.3125203,73.9806371
3.31414258,76.0595812
3.31738712,80.5629679
3.32063166,85.5797257
3.32387621,91.1810969
3.32549848,94.2259666
3.32874302,100.859692
3.33117643,106.359034
3.3327987,110.299364
3.33442098,114.475214
3.33685438,121.212371
3.33847666,126.041143
3.34009893,131.157352
3.34253234,139.403048
3.34415461,145.301708
3.34577688,151.536565
3.34739915,158.118385
3.34983256,168.658349
3.35113038,174.610585
3.35372601,187.198256
3.35632165,200.653064
3.35891728,214.867529
3.36800201,266.95977
3.36994873,277.419691
3.37189546,287.086726
3.37449109,298.246495
3.37578891,302.896287
3.37708673,306.822464
3.37838455,309.957765
3.37968236,312.246611
3.38098018,313.647536
3.38188865,314.08555
3.38292691,314.033054
3.38422473,313.14053
3.38552254,311.346859
3.38682036,308.686716
3.38811818,305.209831
3.389416,300.978785
3.39071381,296.06636
3.39201163,290.552659
3.39395836,281.340054
3.39655399,267.74724
3.4043409,223.719814
3.40823435,202.605852
3.41082999,189.463936
3.41342562,177.203005
3.41553458,167.921713
3.41796798,157.974247
3.42040139,148.823917
3.4228348,140.435647
3.42526821,132.764794
3.42689048,128.025073
3.42932389,121.43883
3.43094616,117.374791
3.43337957,111.731947
3.43581298,106.590564
3.43905752,100.438254
3.44230206,95.0006799
3.44392434,92.5224838
3.44716888,87.9981626
3.45041342,83.9916552
3.4520357,82.1628674
3.45528024,78.8193557
3.45852478,75.8535348
3.46014706,74.4984269
3.4633916,72.0194212
3.46663614,69.8199933
3.47150296,66.9796281
3.4747475,65.3546923
3.47961432,63.266674
3.48448114,61.5447429
3.48934795,60.1392521
3.4925925,59.3577009
3.49908158,58.1225942
3.50232613,57.6523274
3.50881522,56.9719854
3.51205976,56.7506216
3.51854885,56.5223219
3.52503794,56.5554814
3.53152702,56.8270978
3.53801611,57.320154
3.5445052,58.0225594
3.55099429,58.9263661
3.55748338,60.0271977
3.56397246,61.3238402
3.57046155,62.8179656
3.57695064,64.5139614
3.58343973,66.4188526
3.58992882,68.5423042
3.5964179,70.8967005
3.60290699,73.4972977
3.60939608,76.3624541
3.61588517,79.5139419
3.62286737,83.2541071
3.63054714,87.8300141
3.63685293,91.9893783
3.64315873,96.5525391
3.64946453,101.564385
3.65577033,107.07708
3.65892323,110.039852
3.66522903,116.420844
3.67153483,123.474303
3.67468773,127.280788
3.68099353,135.516907
3.68729933,144.682188
3.69045223,149.655185
3.69675802,160.479632
3.69991092,166.375797
3.70464027,175.896352
3.70779317,182.736352
3.71252252,193.817198
3.71567542,201.80533
3.72040477,214.793221
3.72513412,229.132182
3.72986347,245.009873
3.73459282,262.646962
3.73932217,282.3041
3.74405152,304.2906
3.74562797,312.198857
3.74878087,328.975278
3.75035732,337.87707
3.75351022,356.800074
3.75666312,377.352936
3.75981602,399.719934
3.76139246,411.648177
3.76454536,437.138677
3.76769826,465.024399
3.77085116,495.597908
3.77400406,529.194597
3.77715696,566.199614
3.77952164,596.454118
3.78267454,640.529433
3.78582744,689.39859
3.78740389,715.831244
3.78976856,758.23047
3.79134501,788.47428
3.79292146,820.424869
3.79449791,854.197573
3.79686258,908.545138
3.79843903,947.431001
3.80001548,988.60775
3.80159193,1032.22905
3.80395661,1102.60276
3.80553306,1153.06628
3.80789773,1234.54274
3.81026241,1323.53685
3.81262708,1420.72312
3.81499176,1526.78135
3.81735643,1642.36686
3.81893288,1725.01109
3.82050933,1812.29773
3.82318929,1971.62254
3.8260269,2155.4403
3.82854922,2331.42745
3.83044096,2470.48637
3.8323327,2614.66516
3.83989966,3210.63848
3.84242198,3397.62526
3.84431372,3525.92126
3.84557488,3603.6341
3.84683604,3673.75643
3.8480972,3735.18555
3.84935836,3786.899
3.85061952,3827.99368
3.85188068,3857.72316
3.85314184,3875.53027
3.85452912,3880.9458
3.85566416,3874.23807
3.85692532,3855.15134
3.85818648,3824.16697
3.85944764,3781.85354
3.8607088,3728.96775
3.86196996,3666.4216
3.86323112,3595.24494
3.86449228,3516.54619
3.86638402,3386.90815
3.86890634,3198.39666
3.87584272,2648.70742
3.8796262,2361.48992
3.88214852,2182.45367
3.88340968,2097.28821
3.88530142,1975.26463
3.88672022,1888.32732
3.88829667,1796.33429
3.89066134,1667.27744
3.89302602,1548.5593
3.89539069,1439.61572
3.89775537,1339.79779
3.89933182,1277.98472
3.90169649,1191.85374
3.90327294,1138.53395
3.90563762,1064.22426
3.90721407,1018.19744
3.90879052,974.778521
3.91036697,933.804046
3.91194342,895.119663
3.91351987,858.580079
3.91509632,824.048869
3.91667277,791.398196
3.91824921,760.50846
3.91982566,731.267918
3.92140211,703.572269
3.92297856,677.324232
3.92534324,640.469786
3.92849614,595.601569
3.93164904,555.080824
3.93480194,518.397656
3.93795484,485.109375
3.94110774,454.831211
3.94426064,427.228248
3.94583709,414.337201
3.94898998,390.211217
3.95056643,378.916691
3.95371933,357.729607
3.95529578,347.788117
3.95844868,329.098145
3.96002513,320.309282
3.96317803,303.751895
3.96475448,295.949879
3.96948383,274.269783
3.97421318,254.901887
3.97894253,237.538483
3.98209543,226.946785
3.98682478,212.368292
3.98997768,203.437145
3.99470703,191.094845
3.99785993,183.504419
4.00258928,172.977075
4.00574218,166.480429
4.01047153,157.441047
4.01362442,151.845476
4.01835377,144.037616
4.02150667,139.191266
4.02781247,130.274202
4.03411827,122.281362
4.04042407,115.099347
4.04672987,108.632589
4.05303567,102.800311
4.0568635,99.5399476
4.06142756,95.9063642
4.06791596,91.1787337
4.07440437,86.9204991
4.08089278,83.0894018
4.08413698,81.3228084
4.09062539,78.0686663
4.0971138,75.1658075
4.10360221,72.5942368
4.10684641,71.427926
4.11333482,69.3276817
4.11982323,67.5325192
4.12631164,66.0418109
4.12955584,65.4121432
4.13604425,64.3910542
4.13928845,64.0038771
4.14577686,63.4912067
4.15226527,63.35538
4.15550947,63.4423474
4.16199788,63.9619749
4.16686419,64.6905149
4.17010839,65.3588317
4.17335259,66.1894606
4.1765968,67.198808
4.179841,68.4058961
4.18308521,69.8327762
4.18632941,71.5050016
4.18957361,73.4521665
4.19281782,75.7085062
4.19606202,78.3135493
4.19930623,81.3127941
4.20092833,82.9762544
4.20255043,84.7583581
4.20579463,88.7095057
4.20903884,93.232893
4.21228304,98.4022688
4.21552725,104.297214
4.21877145,111.000289
4.22039355,114.680239
4.22201565,118.591661
4.22363776,122.742704
4.22525986,127.139939
4.22817964,135.687523
4.22947732,139.747722
4.23207269,148.335865
4.23596573,162.269573
4.2450495,196.907227
4.24764487,206.055561
4.25024023,214.114821
4.25153791,217.588214
4.25283559,220.614045
4.25413327,223.139437
4.25543096,225.117681
4.25672864,226.510156
4.25802632,227.288021
4.259324,227.433526
4.26062168,226.940842
4.2625682,225.022433
4.26386589,222.987991
4.26516357,220.387764
4.26646125,217.265056
4.26775893,213.670259
4.27035429,205.289342
4.27230082,198.194017
4.27424734,190.624145
4.28138459,161.536372
4.28397995,151.286652
4.28657531,141.51904
4.287873,136.84896
4.29046836,127.974
4.29257709,121.235339
